frame_index,host_time_s,status,sd_present,usb_connected,dac_a_volts,dac_b_volts,adc_ch01_volts,adc_ch02_volts,adc_ch03_volts,adc_ch04_volts,adc_ch05_volts,adc_ch06_volts,adc_ch07_volts,adc_ch08_volts,adc_ch09_volts,adc_ch10_volts,adc_ch11_volts,adc_ch12_volts,adc_ch13_volts,adc_ch14_volts,adc_ch15_volts,adc_ch16_volts,emg_ch01_volts,emg_ch02_volts,emg_ch03_volts,emg_ch04_volts,emg_ch05_volts,emg_ch06_volts,emg_ch07_volts,emg_ch08_volts,emg_ch09_volts,emg_ch10_volts,emg_ch11_volts,emg_ch12_volts,emg_ch13_volts,emg_ch14_volts,emg_ch15_volts,emg_ch16_volts,imu0_roll_deg,imu0_pitch_deg,imu0_yaw_deg,imu0_ax_g,imu0_ay_g,imu0_az_g,imu1_roll_deg,imu1_pitch_deg,imu1_yaw_deg,imu1_ax_g,imu1_ay_g,imu1_az_g,imu2_roll_deg,imu2_pitch_deg,imu2_yaw_deg,imu2_ax_g,imu2_ay_g,imu2_az_g,imu3_roll_deg,imu3_pitch_deg,imu3_yaw_deg,imu3_ax_g,imu3_ay_g,imu3_az_g
1,0.234000,0,0,0,-7.52219594e-38,-4.93993425e+21,35.0967102,-1.43908648e+35,-2.17786953e+34,735198464,-1.11738545e-38,-7.29593013e+28,0.123401687,-7.96135391e-39,4.90140271e+11,4.11012908e+17,-4.23620427e-12,-1.16383248e-15,3.31232495e+16,1.50503222e+26,1.19153905e-20,-7.35046503e+36,8.92142025e-33,-1.19820418e-24,-7.35158688e-17,2.70136703e+18,0.000277368701,8.88061691e-22,-5.18946793e+26,4.04055959e-14,-0.0138460603,-4.86878475e-30,-8.21774254e+12,-4.8176798e-19,-3.29305684e-16,-1.6306771e-23,-1.38655977e+32,0.000371133036,-2.14184317e+23,-3.44637135e+14,-8.63365859e-25,3.76728378e-31,-1.53869417e-21,-3.49522937e+34,0.00674306322,2.18697507e-20,3.50230789e+16,7.22264262e+19,4.08282141e-36,0,0,0,0,0,0,0,0,0,0,0,0,0
2,0.234000,3,1,1,0,0,3.51104736,3.50799561,3.50372314,3.50952148,3.50250244,3.51470947,3.50799561,3.50280762,3.487854,3.48480225,3.48907471,3.47625732,3.47442627,3.47076416,3.48144531,3.48937988,-0.00190028176,-0.00231099664,-0.00247552246,-0.00204510242,-0.00194258068,-0.00255838316,-0.00166748464,-0.00152685028,-0.00352311204,-0.00357927289,-0.00389589882,-0.00389456796,-0.00326675083,-0.00176218734,-0.00303216558,-0.00234172423,0,0,0,0,0,0,0,0,0,0,0,0,0,0,0,0,0,0,0,0,0,0,0,0
3,0.234000,3,1,1,0,0,3.51135254,3.50738525,3.50463867,3.50921631,3.50250244,3.51501465,3.50952148,3.50280762,3.49182129,3.49029541,3.49365234,3.48022461,3.47930908,3.47320557,3.4854126,3.48999023,-0.000360286795,-0.00102554332,-0.000270695076,-7.69197359e-05,-0.000548130425,-0.000535272004,-0.000909331429,-0.000312928751,0.00233255653,0.00135248597,0.000551660312,0.00109290145,0.00303412788,0.00154158054,0.000913749449,-2.22878443e-05,0,0,0,0,0,0,0,0,0,0,0,0,0,0,0,0,0,0,0,0,0,0,0,0
4,0.234000,3,1,1,0,0,3.50585938,3.50311279,3.49945068,3.50128174,3.49731445,3.50891113,3.50189209,3.49639893,3.48205566,3.47930908,3.48388672,3.47106934,3.46923828,3.46343994,3.47717285,3.48114014,-0.00600327691,-0.00551631767,-0.00659113657,-0.00728476699,-0.00623439159,-0.00589207839,-0.00612280145,-0.00657467823,-0.0047320216,-0.00567368045,-0.00423556566,-0.00395405479,-0.00457655825,-0.00606051181,-0.00430544,-0.00690322928,0,0,0,0,0,0,0,0,0,0,0,0,0,0,0,0,0,0,0,0,0,0,0,0
5,0.234000,3,1,1,0,0,3.5067749,3.50311279,3.50097656,3.50463867,3.49853516,3.50982666,3.50250244,3.49822998,3.48236084,3.48388672,3.48388672,3.47137451,3.47045898,3.46466064,3.4777832,3.48480225,0.00465104077,0.00479586888,0.00464223232,0.00496481219,0.00452223653,0.00481799897,0.0031262103,0.00458302442,0.00235475227,0.00503671169,0.00188052922,0.00439038593,0.00263587944,0.00240306486,0.00272512692,0.00347237429,0,0,0,0,0,0,0,0,0,0,0,0,0,0,0,0,0,0,0,0,0,0,0,0
6,0.234000,3,1,1,0,0,3.51074219,3.50708008,3.50585938,3.50891113,3.50311279,3.51409912,3.50921631,3.50341797,3.49121094,3.49060059,3.4942627,3.47991943,3.47961426,3.47290039,3.48449707,3.49121094,0.00767803704,0.00723802065,0.00827362202,0.00817906298,0.00753979431,0.00703318371,0.00723234098,0.00787090696,0.00791423023,0.00840720069,0.0103089521,0.00879243668,0.0084496066,0.00835652091,0.00788666122,0.00828269403,0,0,0,0,0,0,0,0,0,0,0,0,0,0,0,0,0,0,0,0,0,0,0,0
7,0.234000,3,1,1,0,0,3.51745605,3.51470947,3.51043701,3.51409912,3.50891113,3.51989746,3.51348877,3.50830078,3.49304199,3.49212646,3.49456787,3.48205566,3.48022461,3.47412109,3.48754883,3.4954834,0.00764998235,0.00806184951,0.00705076242,0.00701700151,0.00794786029,0.00805221032,0.00697662262,0.00651069824,0.00660136482,0.00752365636,0.00635682791,0.00685671624,0.00726559665,0.00590378046,0.00724007515,0.00577165699,0,0,0,0,0,0,0,0,0,0,0,0,0,0,0,0,0,0,0,0,0,0,0,0
8,0.234000,3,1,1,0,0,3.51409912,3.51104736,3.50891113,3.51104736,3.50646973,3.51623535,3.51165771,3.50372314,3.49151611,3.49273682,3.49731445,3.48388672,3.48052979,3.47442627,3.48754883,3.49578857,-0.000881908287,-0.000561398221,0.000398018863,0.000191456988,-0.000796595938,-0.000285826594,-0.000478350004,-5.42207708e-05,0.00144991663,0.000496292836,0.00232362957,0.00251926156,0.00203675008,0.00166584272,0.0012643456,0.00100227376,0,0,0,0,0,0,0,0,0,0,0,0,0,0,0,0,0,0,0,0,0,0,0,0
9,0.234000,3,1,1,0,0,3.50738525,3.5043335,3.50158691,3.50463867,3.49975586,3.50891113,3.50311279,3.49914551,3.48693848,3.48480225,3.48937988,3.47503662,3.47412109,3.47015381,3.47900391,3.48907471,0.00497262739,0.00560645061,0.00490148319,0.00447565969,0.00534296921,0.00431055995,0.00468793279,0.00508806575,0.0043899403,0.00475398544,0.00346439425,0.00463358033,0.00385019043,0.00318147521,0.00484041357,0.00456293812,0,0,0,0,0,0,0,0,0,0,0,0,0,0,0,0,0,0,0,0,0,0,0,0
10,0.234000,3,1,1,0,0,3.51593018,3.51257324,3.50921631,3.51196289,3.50738525,3.5168457,3.51196289,3.50646973,3.49151611,3.49212646,3.49395752,3.48236084,3.48022461,3.47442627,3.4866333,3.49243164,0.00480360584,0.00535870437,0.00526675535,0.00486217951,0.00563458726,0.0050349161,0.00521037402,0.00500047347,0.00500816153,0.00588115072,0.00534322252,0.00597385503,0.0058019408,0.0049557942,0.00578154158,0.00601925002,0,0,0,0,0,0,0,0,0,0,0,0,0,0,0,0,0,0,0,0,0,0,0,0
11,0.234000,3,1,1,0,0,3.51654053,3.5144043,3.51043701,3.51409912,3.50860596,3.52020264,3.51226807,3.50769043,3.49212646,3.49243164,3.49395752,3.48144531,3.47991943,3.47473145,3.48693848,3.4954834,0.00685703568,0.00678576808,0.0066389963,0.00701915147,0.00617986731,0.00613294728,0.00596048497,0.00657776417,0.00488114497,0.00708269468,0.00764929364,0.0061080684,0.00477461144,0.00634682691,0.00577535946,0.00688843802,0,0,0,0,0,0,0,0,0,0,0,0,0,0,0,0,0,0,0,0,0,0,0,0
12,0.234000,3,1,1,0,0,3.51593018,3.51287842,3.50891113,3.51257324,3.50738525,3.51837158,3.51165771,3.5067749,3.49090576,3.49182129,3.49273682,3.48114014,3.47869873,3.47473145,3.48693848,3.49395752,-0.0045048953,-0.00335027487,-0.00466134027,-0.0053086332,-0.00430941535,-0.0034563567,-0.00497244904,-0.00465446385,-0.00426266901,-0.00473337853,-0.00416939938,-0.00383057329,-0.00494740065,-0.00441577984,-0.00410165312,-0.00558190653,0,0,0,0,0,0,0,0,0,0,0,0,0,0,0,0,0,0,0,0,0,0,0,0
13,0.234000,3,1,1,0,0,3.51165771,3.50769043,3.50372314,3.50860596,3.50250244,3.5144043,3.50921631,3.50250244,3.48846436,3.48571777,3.49212646,3.47595215,3.47564697,3.47259521,3.48297119,3.48968506,0.00460079359,0.00294368784,0.00407353649,0.00441586692,0.00384107837,0.00355261099,0.0039647622,0.00462065265,0.00546940044,0.00369727914,0.00567043945,0.00369653292,0.00491808122,0.0061815544,0.00504889851,0.00526164891,0,0,0,0,0,0,0,0,0,0,0,0,0,0,0,0,0,0,0,0,0,0,0,0
14,0.391000,3,1,1,0,0,3.51165771,3.50891113,3.50616455,3.50982666,3.5055542,3.51531982,3.51104736,3.50341797,3.49212646,3.49121094,3.49304199,3.48083496,3.47930908,3.47351074,3.48693848,3.49395752,0.00362364994,0.0040132883,0.00392004801,0.00397347473,0.00425785314,0.00405217987,0.00438273512,0.00318406289,0.00441636611,0.00495299976,0.00380400009,0.00536478497,0.00508060353,0.00382372737,0.00521446066,0.00439521857,0,0,0,0,0,0,0,0,0,0,0,0,0,0,0,0,0,0,0,0,0,0,0,0
15,0.391000,3,1,1,0,0,3.51165771,3.50860596,3.50402832,3.50799561,3.50219727,3.51470947,3.50982666,3.50280762,3.487854,3.4866333,3.48937988,3.4765625,3.4753418,3.47137451,3.48205566,3.48937988,0.00522176037,0.00640512304,0.00538231665,0.0054406561,0.00522565981,0.00608032336,0.00649346923,0.00524963532,0.00438279239,0.00482292986,0.00367126195,0.00334976427,0.00446897047,0.00513217179,0.0053314562,0.0028372691,0,0,0,0,0,0,0,0,0,0,0,0,0,0,0,0,0,0,0,0,0,0,0,0
16,0.391000,3,1,1,0,0,3.50952148,3.50646973,3.50250244,3.5067749,3.50158691,3.51074219,3.5067749,3.50006104,3.48327637,3.48510742,3.48419189,3.47503662,3.47076416,3.46832275,3.47839355,3.4854126,-0.00399746886,-0.00362289464,-0.0048610745,-0.00407853676,-0.0034157401,-0.00422964431,-0.00373522798,-0.00386184338,-0.00482590683,-0.00353402947,-0.00543776294,-0.00496907253,-0.00552970869,-0.00461746613,-0.00467594573,-0.00561512867,0,0,0,0,0,0,0,0,0,0,0,0,0,0,0,0,0,0,0,0,0,0,0,0
17,0.391000,3,1,1,0,0,3.51470947,3.51104736,3.50738525,3.51196289,3.50646973,3.51715088,3.51074219,3.50463867,3.49212646,3.49212646,3.4942627,3.48175049,3.48022461,3.47351074,3.4866333,3.4942627,0.000117843214,-0.000314453879,-0.000489901751,0.000491377199,-0.000727792038,0.000331814575,0.00034115772,0.000244790572,0.000728265557,-2.86876748e-05,0.00109715457,0.00157333352,0.00126150344,0.000720248208,0.000778207148,0.000199217597,0,0,0,0,0,0,0,0,0,0,0,0,0,0,0,0,0,0,0,0,0,0,0,0
18,0.391000,3,1,1,0,0,3.51165771,3.51043701,3.50738525,3.51013184,3.50524902,3.51623535,3.51013184,3.50402832,3.49212646,3.49029541,3.49304199,3.48114014,3.47930908,3.47259521,3.48602295,3.49121094,0.00788151752,0.00907145999,0.00887396559,0.00857127458,0.0094577428,0.00894285366,0.00868736207,0.00819773227,0.00896757189,0.00884376559,0.00783832278,0.00907413941,0.00889665633,0.00836858153,0.00940991193,0.00910144206,0,0,0,0,0,0,0,0,0,0,0,0,0,0,0,0,0,0,0,0,0,0,0,0
19,0.391000,3,1,1,0,0,3.50921631,3.5067749,3.50250244,3.5067749,3.50189209,3.51043701,3.5067749,3.50067139,3.48297119,3.4854126,3.4854126,3.47473145,3.47076416,3.46862793,3.47839355,3.48815918,0.00477081211,0.00564586604,0.00425154576,0.00468001096,0.00517486222,0.00495392736,0.00514813326,0.00488686748,0.00270281895,0.00467534456,0.00269468129,0.00416423939,0.00261133909,0.00371477287,0.00296020973,0.00290889409,0,0,0,0,0,0,0,0,0,0,0,0,0,0,0,0,0,0,0,0,0,0,0,0
20,0.391000,3,1,1,0,0,3.51531982,3.51257324,3.50921631,3.51165771,3.50738525,3.51806641,3.51257324,3.5067749,3.49090576,3.49304199,3.49487305,3.48266602,3.47869873,3.47442627,3.48724365,3.49487305,0.0103198867,0.0101428675,0.0106011163,0.0101443287,0.0093041826,0.00951961894,0.00919066835,0.0102328276,0.0101057515,0.0104346359,0.0102140317,0.00962839741,0.0102853086,0.00949285179,0.0102959806,0.0100610545,0,0,0,0,0,0,0,0,0,0,0,0,0,0,0,0,0,0,0,0,0,0,0,0
21,0.391000,3,1,1,0,0,3.51013184,3.50585938,3.50402832,3.50799561,3.50128174,3.51104736,3.50799561,3.50158691,3.49060059,3.48937988,3.49243164,3.47961426,3.47808838,3.47229004,3.4854126,3.48907471,0.00290145306,0.00154128473,0.00265387492,0.00280356128,0.00183625659,0.00144719356,0.00309973676,0.00215718243,0.00406777533,0.0029025902,0.00266377954,0.00296290964,0.00394439884,0.00384031236,0.00293020182,0.00245684991,0,0,0,0,0,0,0,0,0,0,0,0,0,0,0,0,0,0,0,0,0,0,0,0
22,0.391000,3,1,1,0,0,3.51715088,3.51379395,3.51013184,3.51348877,3.50921631,3.51959229,3.51196289,3.50738525,3.49121094,3.49121094,3.4942627,3.48083496,3.47930908,3.47381592,3.48724365,3.49395752,-0.00247082091,-0.00219312287,-0.00226241793,-0.00252113142,-0.00215125037,-0.00198515342,-0.00305169774,-0.00187447842,-0.00256237295,-0.00311116083,-0.0011276427,-0.00398641592,-0.00171113107,-0.0020734123,-0.00148862088,-0.00291395281,0,0,0,0,0,0,0,0,0,0,0,0,0,0,0,0,0,0,0,0,0,0,0,0
23,0.391000,3,1,1,0,0,3.51470947,3.51287842,3.50982666,3.51226807,3.50769043,3.51837158,3.51226807,3.50769043,3.49212646,3.49273682,3.49761963,3.48205566,3.47961426,3.47442627,3.48815918,3.4954834,-0.00183004653,-0.00205601892,-0.00121527934,-0.00193617959,-0.00182167604,-0.00210236711,-0.00186378846,-0.00136585278,-0.000984214246,-0.000625481945,0.000142512668,-0.000304419053,-0.000807228382,-0.00109514117,-0.00139403681,0.000297892431,0,0,0,0,0,0,0,0,0,0,0,0,0,0,0,0,0,0,0,0,0,0,0,0
24,0.391000,3,1,1,0,0,3.51287842,3.51013184,3.50616455,3.50952148,3.5055542,3.51654053,3.50952148,3.50311279,3.49090576,3.48693848,3.49273682,3.47991943,3.47625732,3.47351074,3.48419189,3.49029541,0.000854175771,0.00144654373,0.000108477427,8.43706366e-05,0.000663476589,0.00170657865,0.000148373976,8.57937266e-05,-0.00213733735,-0.00123841129,-0.00290134596,-0.000788913399,-0.00279900734,-0.0020612285,-0.00125471002,-0.00329788565,0,0,0,0,0,0,0,0,0,0,0,0,0,0,0,0,0,0,0,0,0,0,0,0
25,0.391000,3,1,1,0,0,3.515625,3.51379395,3.51043701,3.51470947,3.50891113,3.51867676,3.51287842,3.50799561,3.49304199,3.49395752,3.49456787,3.48388672,3.48022461,3.47625732,3.48632812,3.49517822,0.0070738392,0.00745318551,0.00714474125,0.00715287402,0.00682326034,0.00676629227,0.00603552256,0.00711352471,0.00566626154,0.00714742951,0.00568081439,0.00807803683,0.00629609451,0.00555650145,0.00634090137,0.00652924553,0,0,0,0,0,0,0,0,0,0,0,0,0,0,0,0,0,0,0,0,0,0,0,0
26,0.391000,3,1,1,0,0,3.5168457,3.51348877,3.51013184,3.5144043,3.50921631,3.51959229,3.51287842,3.50769043,3.49304199,3.49304199,3.4979248,3.48419189,3.47930908,3.47442627,3.48754883,3.49609375,0.00587418489,0.00582782645,0.00550270081,0.00469098007,0.00602190243,0.00639616139,0.0047157621,0.00428567175,0.00466350093,0.00506404135,0.00366002833,0.00456474489,0.00437935814,0.00299007143,0.0047468571,0.00349389412,0,0,0,0,0,0,0,0,0,0,0,0,0,0,0,0,0,0,0,0,0,0,0,0
27,0.391000,3,1,1,0,0,3.51867676,3.51531982,3.51257324,3.515625,3.50982666,3.52050781,3.515625,3.50952148,3.49578857,3.49456787,3.49914551,3.4854126,3.48388672,3.47564697,3.49121094,3.49731445,0.00899961963,0.00912176911,0.00876458827,0.00815071445,0.00897890795,0.00896229502,0.00832038652,0.00914160162,0.00731237978,0.00719041051,0.00788737554,0.00783469155,0.00754872104,0.00616101734,0.0082395887,0.0060296529,0,0,0,0,0,0,0,0,0,0,0,0,0,0,0,0,0,0,0,0,0,0,0,0
28,0.391000,3,1,1,0,0,3.50524902,3.50219727,3.49914551,3.50158691,3.49761963,3.50738525,3.50158691,3.49517822,3.48144531,3.47961426,3.48358154,3.47076416,3.46893311,3.46374512,3.47625732,3.48114014,-0.00392031949,-0.00408451306,-0.00359234423,-0.0041105547,-0.00422791205,-0.00419564033,-0.00437879469,-0.00353219826,-0.00359494309,-0.00264341617,-0.00442116894,-0.00247471454,-0.0038061724,-0.00241559092,-0.00442254078,-0.00342658977,0,0,0,0,0,0,0,0,0,0,0,0,0,0,0,0,0,0,0,0,0,0,0,0
29,0.391000,3,1,1,0,0,3.51104736,3.50738525,3.50463867,3.50860596,3.50189209,3.51501465,3.50860596,3.50189209,3.487854,3.4866333,3.48937988,3.47473145,3.47503662,3.47015381,3.47961426,3.48907471,0.0041349167,0.00430030236,0.00391478091,0.0041224109,0.00358700496,0.00498321373,0.00426590769,0.00442879973,0.00413995795,0.00311603164,0.00340713002,0.00220792601,0.00429256679,0.00428650249,0.00322639453,0.00447326154,0,0,0,0,0,0,0,0,0,0,0,0,0,0,0,0,0,0,0,0,0,0,0,0
30,0.391000,3,1,1,0,0,3.51013184,3.50646973,3.50402832,3.50769043,3.50128174,3.51196289,3.50799561,3.50158691,3.48632812,3.48571777,3.4854126,3.47564697,3.47137451,3.46954346,3.47808838,3.48693848,0.000733815599,0.00118558842,0.000735066249,0.000699075696,0.000756190915,0.000833989354,0.000646364409,0.000546460797,-0.000795254484,0.000196521578,-0.00245742267,-0.000196202251,-0.000800672919,-0.00171728595,-0.000832955819,0.000482896809,0,0,0,0,0,0,0,0,0,0,0,0,0,0,0,0,0,0,0,0,0,0,0,0
31,0.562000,3,1,1,0,0,3.515625,3.51196289,3.5067749,3.51135254,3.50708008,3.51715088,3.51043701,3.50646973,3.49121094,3.49182129,3.49456787,3.48114014,3.47869873,3.47351074,3.48632812,3.4942627,0.0031621193,0.00317612942,0.00257550785,0.00293752598,0.00281313178,0.00219975202,0.00287860353,0.00275459746,0.00260590808,0.00278330548,0.00376835279,0.00220256858,0.00289942068,0.00275016134,0.00358221401,0.00295738783,0,0,0,0,0,0,0,0,0,0,0,0,0,0,0,0,0,0,0,0,0,0,0,0
32,0.562000,3,1,1,0,0,3.5055542,3.50189209,3.49853516,3.50067139,3.49731445,3.50769043,3.50189209,3.4954834,3.48175049,3.48114014,3.48297119,3.47045898,3.46862793,3.46405029,3.47717285,3.48144531,-0.00274250517,-0.00274652266,-0.00365324318,-0.00387638924,-0.00357393455,-0.00316204457,-0.00277922978,-0.00339705357,-0.00348988571,-0.00326148421,-0.00295136357,-0.00318814069,-0.00301072886,-0.00326109352,-0.0033387905,-0.00288260705,0,0,0,0,0,0,0,0,0,0,0,0,0,0,0,0,0,0,0,0,0,0,0,0
33,0.562000,3,1,1,0,0,3.51623535,3.51257324,3.51074219,3.51257324,3.50769043,3.51837158,3.51165771,3.50524902,3.49243164,3.49243164,3.49731445,3.48236084,3.48022461,3.47412109,3.48632812,3.49609375,0.00303167989,0.0035730456,0.00283193938,0.00233156048,0.00288437703,0.00199781917,0.00219925307,0.0019259695,0.000211250386,0.00194063247,0.0013531273,0.00165693217,-0.000135602138,0.0012171187,0.000120800629,0.00270734983,0,0,0,0,0,0,0,0,0,0,0,0,0,0,0,0,0,0,0,0,0,0,0,0
34,0.562000,3,1,1,0,0,3.5144043,3.51196289,3.50921631,3.51318359,3.50738525,3.51806641,3.51165771,3.50616455,3.49182129,3.49212646,3.49334717,3.48388672,3.47869873,3.47290039,3.48632812,3.49487305,0.0105114579,0.0114195673,0.0117736924,0.0115604736,0.0107892863,0.0111669861,0.0124708237,0.0110138627,0.0125393607,0.0112877218,0.0114464629,0.0112169757,0.0121158082,0.0117268823,0.0124917775,0.0111083072,0,0,0,0,0,0,0,0,0,0,0,0,0,0,0,0,0,0,0,0,0,0,0,0
35,0.562000,3,1,1,0,0,3.51470947,3.51226807,3.50799561,3.51135254,3.50708008,3.51837158,3.51226807,3.5067749,3.49212646,3.49151611,3.49487305,3.48114014,3.48022461,3.47290039,3.48754883,3.49395752,-0.000831163721,-0.000925411587,-0.00113306695,-0.00145790214,-0.00134549174,-0.000581110478,-0.000315497949,-0.000679364544,-0.000478406117,-0.00152011402,-4.04415478e-05,-0.000626258785,-0.000685713254,-0.00185417256,-0.000437268289,-0.0027556261,0,0,0,0,0,0,0,0,0,0,0,0,0,0,0,0,0,0,0,0,0,0,0,0
36,0.562000,3,1,1,0,0,3.51715088,3.51531982,3.51196289,3.51531982,3.51043701,3.52081299,3.51531982,3.50921631,3.49761963,3.4954834,3.49975586,3.48571777,3.48449707,3.47839355,3.49121094,3.49822998,0.00156193122,0.0019502861,0.00197910611,0.00157019868,0.00176329433,0.0017438283,0.00114911911,0.000980573706,0.00233174395,0.000465375953,0.00216154847,0.00166636484,0.00168512785,0.00141173182,0.00157601014,0.000532185542,0,0,0,0,0,0,0,0,0,0,0,0,0,0,0,0,0,0,0,0,0,0,0,0
37,0.562000,3,1,1,0,0,3.51715088,3.51501465,3.51135254,3.51531982,3.50982666,3.51989746,3.51470947,3.50891113,3.49578857,3.49456787,3.4979248,3.48510742,3.47991943,3.4765625,3.48815918,3.49609375,0.00594973052,0.00618974492,0.00580874179,0.00577688729,0.00640058145,0.0059938957,0.00530475425,0.00550939329,0.00488563348,0.00669923238,0.00643481361,0.00674595311,0.00475201663,0.00539541431,0.00605335087,0.00436335988,0,0,0,0,0,0,0,0,0,0,0,0,0,0,0,0,0,0,0,0,0,0,0,0
38,0.562000,3,1,1,0,0,3.50311279,3.50036621,3.49731445,3.50067139,3.49578857,3.50646973,3.50067139,3.4954834,3.48236084,3.47839355,3.48388672,3.47045898,3.46954346,3.46405029,3.47595215,3.48449707,0.00049644371,-0.00020356942,-0.000298948784,0.000446413935,-0.000789247162,0.000170621453,0.000162363736,0.0006785437,4.33330351e-05,-0.00018258662,-0.00239956542,0.000353595358,-0.00163892587,-0.000406797481,-0.00154614018,0.000325049623,0,0,0,0,0,0,0,0,0,0,0,0,0,0,0,0,0,0,0,0,0,0,0,0
39,0.562000,3,1,1,0,0,3.50799561,3.50402832,3.50097656,3.50524902,3.49945068,3.51043701,3.50524902,3.49914551,3.48205566,3.48205566,3.48327637,3.47198486,3.46893311,3.46496582,3.47686768,3.48480225,1.25705265e-05,0.000257444568,0.00046744803,0.000193635817,0.000583134824,0.000282194815,-0.000132001587,-0.000966698804,-0.000128274085,0.00032956514,0.000237008324,0.000660465215,0.000724048703,-0.000325962086,0.00111651362,-0.000357786659,0,0,0,0,0,0,0,0,0,0,0,0,0,0,0,0,0,0,0,0,0,0,0,0
40,0.562000,3,1,1,0,0,3.50219727,3.49822998,3.49517822,3.49975586,3.49182129,3.50372314,3.49884033,3.49273682,3.48083496,3.47991943,3.48358154,3.47137451,3.46954346,3.46313477,3.4753418,3.47991943,-0.00682575163,-0.0069858185,-0.00656594709,-0.00662815198,-0.00778329093,-0.00750397053,-0.00716096628,-0.00682107639,-0.00826563872,-0.00679105334,-0.00763006276,-0.00695580989,-0.00869902968,-0.00778316706,-0.00936638098,-0.00813832041,0,0,0,0,0,0,0,0,0,0,0,0,0,0,0,0,0,0,0,0,0,0,0,0
41,0.562000,3,1,1,0,0,3.515625,3.51287842,3.50891113,3.51257324,3.50738525,3.51806641,3.51074219,3.50524902,3.49243164,3.49090576,3.49273682,3.48114014,3.47991943,3.47259521,3.4866333,3.49121094,0.00206360011,0.00240411446,0.00222627795,0.00174832717,0.00183110102,0.00293664401,0.00202144007,0.00116831006,0.00228811847,0.00134145049,0.00291811512,3.63935833e-05,0.00265117362,0.00144026824,0.00357834622,0.00148328103,0,0,0,0,0,0,0,0,0,0,0,0,0,0,0,0,0,0,0,0,0,0,0,0
42,0.562000,3,1,1,0,0,3.50280762,3.50067139,3.49609375,3.50006104,3.49609375,3.50616455,3.50189209,3.49365234,3.48266602,3.48175049,3.48510742,3.47229004,3.47015381,3.46374512,3.4777832,3.4854126,0.00203461037,0.00200220477,0.00177886593,0.00210883003,0.00184887182,0.00299382769,0.00205376721,0.00188264204,0.00146929419,0.00131709315,0.000796639826,0.000302142842,0.00248328852,0.000547028321,0.00170468143,0.00155855576,0,0,0,0,0,0,0,0,0,0,0,0,0,0,0,0,0,0,0,0,0,0,0,0
43,0.562000,3,1,1,0,0,3.5244751,3.51959229,3.51745605,3.52081299,3.51654053,3.52630615,3.52111816,3.51470947,3.50097656,3.49761963,3.50311279,3.48937988,3.48907471,3.48327637,3.49639893,3.50067139,0.00832290016,0.00830220152,0.00786080118,0.00833018124,0.008052513,0.00735506415,0.00761170732,0.00771616586,0.00629029237,0.0065256604,0.0060185194,0.00710538914,0.00682922918,0.00718643656,0.0067452318,0.00776515203,0,0,0,0,0,0,0,0,0,0,0,0,0,0,0,0,0,0,0,0,0,0,0,0
44,0.562000,3,1,1,0,0,3.50311279,3.50189209,3.49761963,3.50097656,3.4967041,3.50708008,3.50067139,3.4942627,3.48297119,3.48205566,3.48419189,3.47259521,3.47015381,3.46466064,3.4765625,3.48571777,-0.00539537333,-0.00450227922,-0.00482288422,-0.00566140283,-0.0050130398,-0.0051255119,-0.00585340289,-0.00517777633,-0.00409063138,-0.00479820557,-0.00496733095,-0.00449425261,-0.0055700033,-0.00399541343,-0.00456098234,-0.00503419107,0,0,0,0,0,0,0,0,0,0,0,0,0,0,0,0,0,0,0,0,0,0,0,0
45,0.562000,3,1,1,0,0,3.50616455,3.50372314,3.50006104,3.50402832,3.49853516,3.50982666,3.50311279,3.49731445,3.48297119,3.48480225,3.48480225,3.47442627,3.47106934,3.46496582,3.4777832,3.48571777,0.00660014618,0.00673201727,0.0070811538,0.0079212077,0.00685532019,0.00706360908,0.00701550068,0.00691988086,0.00682299351,0.00773614412,0.00624357536,0.00733036734,0.00695412839,0.00564061385,0.00711730309,0.00640784809,0,0,0,0,0,0,0,0,0,0,0,0,0,0,0,0,0,0,0,0,0,0,0,0
46,0.562000,3,1,1,0,0,3.51287842,3.51013184,3.50799561,3.51165771,3.50616455,3.51623535,3.51043701,3.50372314,3.49273682,3.49182129,3.49487305,3.48144531,3.47869873,3.47259521,3.48632812,3.49456787,-0.00152548833,-0.00102205283,-0.00151724846,-0.00124536338,-0.000759377028,-0.00111770374,-0.00112648786,-0.00206934521,-0.0012527809,0.000181625364,-0.000617127866,-0.000755051035,-0.00095217186,-0.000963726547,-0.000611736206,0.000136601506,0,0,0,0,0,0,0,0,0,0,0,0,0,0,0,0,0,0,0,0,0,0,0,0
47,0.562000,3,1,1,0,0,3.515625,3.51379395,3.51013184,3.51379395,3.50860596,3.51928711,3.51287842,3.50799561,3.49304199,3.49334717,3.4954834,3.48510742,3.47991943,3.47503662,3.48632812,3.49578857,0.00469910912,0.0047582956,0.00449141022,0.00460408675,0.00489669014,0.00474827643,0.00358944829,0.00426908769,0.00393821765,0.00534270611,0.00476584956,0.00593242515,0.00462828251,0.00409774482,0.00426702201,0.00462928414,0,0,0,0,0,0,0,0,0,0,0,0,0,0,0,0,0,0,0,0,0,0,0,0
48,0.734000,3,1,1,0,0,3.50585938,3.50219727,3.49822998,3.50067139,3.49700928,3.5067749,3.50128174,3.49517822,3.48205566,3.47930908,3.48419189,3.47045898,3.46954346,3.46313477,3.4765625,3.48114014,0.00532268081,0.00482830079,0.00558529235,0.00560770277,0.0049169953,0.0049282196,0.00558656594,0.00552017381,0.0039684074,0.00368215051,0.0043203095,0.00321638607,0.00316090812,0.00450539449,0.00501038367,0.00464368751,0,0,0,0,0,0,0,0,0,0,0,0,0,0,0,0,0,0,0,0,0,0,0,0
49,0.734000,3,1,1,0,0,3.51074219,3.5055542,3.50372314,3.50708008,3.50067139,3.51196289,3.50769043,3.50158691,3.48724365,3.48480225,3.4854126,3.47503662,3.47442627,3.46954346,3.47991943,3.48754883,0.00239397888,0.00173821824,0.00210807775,0.0028648444,0.00258043804,0.00251367735,0.00171441876,0.00243634079,0.00174730213,0.00260825874,0.00122148788,0.00223886268,0.00147653196,0.0013329772,0.00232564798,0.00133559515,0,0,0,0,0,0,0,0,0,0,0,0,0,0,0,0,0,0,0,0,0,0,0,0
50,0.734000,3,1,1,0,0,3.52142334,3.51898193,3.5144043,3.52050781,3.51470947,3.52478027,3.51959229,3.51318359,3.49884033,3.49945068,3.50280762,3.4866333,3.48632812,3.48175049,3.49273682,3.50036621,0.0105916457,0.0107045611,0.0107361488,0.0118449936,0.0107872766,0.010499428,0.0105960872,0.0112436106,0.00989500154,0.010970192,0.0108838845,0.0104023311,0.0103760213,0.00987019017,0.0102853887,0.0109571759,0,0,0,0,0,0,0,0,0,0,0,0,0,0,0,0,0,0,0,0,0,0,0,0
51,0.734000,3,1,1,0,0,3.51196289,3.50860596,3.50585938,3.51013184,3.50494385,3.51531982,3.50921631,3.50341797,3.49243164,3.49090576,3.4942627,3.48114014,3.47869873,3.47412109,3.48693848,3.49060059,0.0061019673,0.00654427707,0.00677954685,0.00596820842,0.00704910373,0.00627236627,0.00627879612,0.00632587867,0.00704398612,0.00717133377,0.00713561289,0.00770537648,0.00777265942,0.00627421727,0.00757821742,0.00604594033,0,0,0,0,0,0,0,0,0,0,0,0,0,0,0,0,0,0,0,0,0,0,0,0
52,0.734000,3,1,1,0,0,3.51043701,3.5067749,3.50494385,3.50860596,3.50219727,3.51196289,3.50830078,3.50128174,3.48724365,3.48602295,3.48968506,3.47473145,3.4753418,3.47015381,3.48205566,3.48999023,0.00439466629,0.00448591914,0.00383401429,0.00388331292,0.00462984061,0.00336672133,0.00351116294,0.00426760456,0.00169311999,0.004146419,0.002348501,0.00219801068,0.00195451616,0.00325397542,0.00333790993,0.00406772736,0,0,0,0,0,0,0,0,0,0,0,0,0,0,0,0,0,0,0,0,0,0,0,0
53,0.734000,3,1,1,0,0,3.51196289,3.50799561,3.50463867,3.51013184,3.50341797,3.5144043,3.51013184,3.50219727,3.49243164,3.49029541,3.49365234,3.48114014,3.47839355,3.47259521,3.48632812,3.49060059,0.0017285801,0.00101905456,0.00131310616,0.00158403057,0.00112677272,0.00151033967,0.00163273071,0.00147535279,0.00103567494,0.00210373895,0.00163824949,0.00191618595,0.00231573614,0.00207135151,0.00103212555,0.00228562858,0,0,0,0,0,0,0,0,0,0,0,0,0,0,0,0,0,0,0,0,0,0,0,0
54,0.734000,3,1,1,0,0,3.51593018,3.51348877,3.50982666,3.51348877,3.50891113,3.51837158,3.51165771,3.50738525,3.49151611,3.49273682,3.49456787,3.48388672,3.47869873,3.47473145,3.48632812,3.49517822,0.00259522907,0.00251723407,0.00214786385,0.00295381527,0.00258048484,0.00256173522,0.00162774336,0.00247887056,0.0033460001,0.00266673486,0.00280024763,0.00257837609,0.00180463342,0.00228458154,0.00243984303,0.00323868939,0,0,0,0,0,0,0,0,0,0,0,0,0,0,0,0,0,0,0,0,0,0,0,0
55,0.734000,3,1,1,0,0,3.5067749,3.50494385,3.50067139,3.50402832,3.49884033,3.50921631,3.50280762,3.49822998,3.48297119,3.48266602,3.48327637,3.47198486,3.47015381,3.46801758,3.47747803,3.48480225,0.00526810344,0.00500821974,0.00520675024,0.00477704592,0.00483442144,0.00545437401,0.00414568745,0.00535409059,0.00506266905,0.00565066515,0.00507283444,0.00572104147,0.00402483717,0.00366416015,0.00465054065,0.00585800363,0,0,0,0,0,0,0,0,0,0,0,0,0,0,0,0,0,0,0,0,0,0,0,0
56,0.734000,3,1,1,0,0,3.51531982,3.51226807,3.50921631,3.51318359,3.50799561,3.51745605,3.51196289,3.50708008,3.49090576,3.49212646,3.49334717,3.48297119,3.47930908,3.47381592,3.4866333,3.49487305,0.00200557755,0.00201121904,0.00195704494,0.0021063434,0.00246501318,0.00237273658,0.00222342741,0.00166208134,0.00256440812,0.00317779672,0.00255409954,0.0027792214,0.00314885518,0.00241548894,0.00269176462,0.00172447483,0,0,0,0,0,0,0,0,0,0,0,0,0,0,0,0,0,0,0,0,0,0,0,0
57,0.734000,3,1,1,0,0,3.52081299,3.51837158,3.51470947,3.52020264,3.51257324,3.5244751,3.51928711,3.51348877,3.50036621,3.50006104,3.50250244,3.48632812,3.4866333,3.48205566,3.49395752,3.50067139,-0.000915120821,0.000767135818,0.000518205808,-0.000148291525,7.82049028e-06,4.59403382e-05,-0.000303953362,0.000824735209,0.000795317348,0.00182379363,-0.000635727774,-9.12649557e-06,0.000985519262,-0.00126351696,0.000718910131,0.0021355229,0,0,0,0,0,0,0,0,0,0,0,0,0,0,0,0,0,0,0,0,0,0,0,0
58,0.734000,3,1,1,0,0,3.50799561,3.50494385,3.50158691,3.5055542,3.49975586,3.51013184,3.5055542,3.49975586,3.48724365,3.48602295,3.48999023,3.4765625,3.47595215,3.46954346,3.48236084,3.48907471,0.00172299601,0.00149268424,0.00151401514,0.00137663423,0.00181758322,0.00158022437,0.00154167938,0.000860461732,0.00169577682,0.00118688832,0.00160589407,0.00234446931,0.00253561721,0.00171630527,0.00298798713,0.000130069078,0,0,0,0,0,0,0,0,0,0,0,0,0,0,0,0,0,0,0,0,0,0,0,0
59,0.734000,3,1,1,0,0,3.50952148,3.5067749,3.50219727,3.50616455,3.50128174,3.51074219,3.50585938,3.49945068,3.48327637,3.48571777,3.48510742,3.47290039,3.47076416,3.46466064,3.47808838,3.4866333,0.00459296396,0.00430946937,0.003923479,0.00433243206,0.00379457837,0.00424563373,0.00429064687,0.00416368153,0.00229298649,0.00295329234,0.00124859391,0.00222445768,0.00170614431,0.00199165242,0.0013915333,0.00235169102,0,0,0,0,0,0,0,0,0,0,0,0,0,0,0,0,0,0,0,0,0,0,0,0
60,0.734000,3,1,1,0,0,3.50372314,3.50128174,3.4967041,3.50006104,3.49639893,3.5067749,3.50189209,3.49487305,3.48175049,3.47808838,3.48358154,3.46618652,3.46893311,3.46374512,3.47412109,3.47961426,-0.00617243676,-0.0053071091,-0.00574518368,-0.00628782948,-0.00476724282,-0.00514394976,-0.00512103643,-0.00589453895,-0.00335171469,-0.00405201036,-0.00416999124,-0.00399928447,-0.00352187874,-0.00476791011,-0.00406169798,-0.00374817522,0,0,0,0,0,0,0,0,0,0,0,0,0,0,0,0,0,0,0,0,0,0,0,0
61,0.734000,3,1,1,0,0,3.50646973,3.50402832,3.49975586,3.50219727,3.49822998,3.50891113,3.50250244,3.49822998,3.48144531,3.48175049,3.48327637,3.47137451,3.47015381,3.46405029,3.47717285,3.48175049,0.00293217297,0.0040843524,0.00390358875,0.00279242452,0.00359893683,0.00352632115,0.00332080317,0.00372100179,0.00280462578,0.00365434564,0.00382144796,0.00458551664,0.00409080181,0.00258360896,0.00356276147,0.00264022592,0,0,0,0,0,0,0,0,0,0,0,0,0,0,0,0,0,0,0,0,0,0,0,0
62,0.734000,3,1,1,0,0,3.51715088,3.5144043,3.51104736,3.5144043,3.50891113,3.51989746,3.51287842,3.50891113,3.49578857,3.4942627,3.49761963,3.48419189,3.48022461,3.4753418,3.48754883,3.49639893,0.0106285857,0.0115404911,0.0108276205,0.0111030471,0.0116651841,0.0112316702,0.0107982866,0.0112314187,0.0116418144,0.0106266979,0.0107146492,0.00933380984,0.0107686045,0.0107694929,0.0108818207,0.00936779007,0,0,0,0,0,0,0,0,0,0,0,0,0,0,0,0,0,0,0,0,0,0,0,0
63,0.734000,3,1,1,0,0,3.50769043,3.50372314,3.50128174,3.50372314,3.49822998,3.50952148,3.50250244,3.49853516,3.48693848,3.48602295,3.48876953,3.47473145,3.47442627,3.46954346,3.47839355,3.48754883,0.000240289548,0.000277090236,0.000486450968,0.000708969485,-0.000364829728,-0.000208335405,0.000343402207,-0.000389549765,0.00178203778,0.0018094437,0.00177385763,0.00242661033,0.00202353322,0.00112867961,0.000513994717,0.00201452547,0,0,0,0,0,0,0,0,0,0,0,0,0,0,0,0,0,0,0,0,0,0,0,0
64,0.734000,3,1,1,0,0,3.51959229,3.51623535,3.51348877,3.51623535,3.51104736,3.52050781,3.51715088,3.51104736,3.49639893,3.49609375,3.49914551,3.4866333,3.48449707,3.47991943,3.49212646,3.50006104,-0.000343936263,0.000547801086,6.00510975e-06,0.000785654061,9.65360377e-05,0.000156511931,0.00102834858,-4.53881221e-05,0.000483584299,-0.000990404049,0.000562959118,-0.00173644256,0.000534265535,0.000271016121,0.00124780659,-0.00114559475,0,0,0,0,0,0,0,0,0,0,0,0,0,0,0,0,0,0,0,0,0,0,0,0
65,0.906000,3,1,1,0,0,3.51074219,3.50708008,3.50372314,3.50860596,3.50128174,3.51257324,3.50769043,3.50250244,3.49121094,3.48632812,3.49273682,3.47961426,3.47900391,3.47320557,3.4854126,3.49090576,0.00584003236,0.0058782855,0.00605505006,0.00722758844,0.00593703752,0.00631475681,0.00625977432,0.00717926165,0.00835388061,0.00768198026,0.00798766967,0.00910018012,0.00947132241,0.008086049,0.00882064085,0.00805186294,0,0,0,0,0,0,0,0,0,0,0,0,0,0,0,0,0,0,0,0,0,0,0,0
66,0.906000,3,1,1,0,0,3.50280762,3.50067139,3.4954834,3.50036621,3.49365234,3.5055542,3.50067139,3.49304199,3.48083496,3.47869873,3.48388672,3.46710205,3.46740723,3.46313477,3.4765625,3.48022461,-0.00565931806,-0.00594869209,-0.00614756253,-0.0057522282,-0.00690470822,-0.00547219859,-0.00510093803,-0.00678221695,-0.00479373476,-0.0050354749,-0.00458331034,-0.00567865418,-0.00506680133,-0.00440843543,-0.00451971171,-0.00469605718,0,0,0,0,0,0,0,0,0,0,0,0,0,0,0,0,0,0,0,0,0,0,0,0
67,0.906000,3,1,1,0,0,3.51135254,3.5067749,3.5043335,3.50830078,3.50250244,3.51226807,3.50769043,3.50250244,3.48999023,3.48907471,3.49273682,3.47961426,3.47625732,3.47229004,3.48510742,3.48968506,0.00214602496,0.00144672079,0.00215518521,0.0017738468,0.00108689046,0.000731873093,0.00130295963,0.0026620531,0.00270511373,0.00206342945,0.00193405978,0.00163611094,0.00330841565,0.00232191733,0.00260030851,0.00208573835,0,0,0,0,0,0,0,0,0,0,0,0,0,0,0,0,0,0,0,0,0,0,0,0
68,0.906000,3,1,1,0,0,3.50708008,3.50311279,3.50036621,3.50372314,3.49945068,3.50891113,3.50341797,3.49822998,3.48632812,3.48602295,3.48571777,3.47473145,3.47381592,3.46862793,3.47808838,3.48724365,0.00111874891,0.00129684666,0.000614015386,0.00112183695,0.00129125314,0.000735759793,0.000466077297,0.00147685269,0.000236076259,0.00114690035,-0.000435297377,0.000114927629,0.00076890958,0.000572189456,4.24042955e-05,-0.00104682334,0,0,0,0,0,0,0,0,0,0,0,0,0,0,0,0,0,0,0,0,0,0,0,0
69,0.906000,3,1,1,0,0,3.51165771,3.50860596,3.50616455,3.51013184,3.50402832,3.51623535,3.50952148,3.50341797,3.49212646,3.49090576,3.49304199,3.48114014,3.47961426,3.47259521,3.48724365,3.49060059,0.00988255721,0.00984028261,0.0108988741,0.011554935,0.00996279996,0.0102729769,0.010728484,0.0105950981,0.0118221343,0.00999795087,0.0118079586,0.0097565297,0.0110723116,0.0109187691,0.0110199144,0.00995114632,0,0,0,0,0,0,0,0,0,0,0,0,0,0,0,0,0,0,0,0,0,0,0,0
70,0.906000,3,1,1,0,0,3.51623535,3.51318359,3.50921631,3.51348877,3.50769043,3.51867676,3.51196289,3.50708008,3.49182129,3.49395752,3.4942627,3.48175049,3.48022461,3.47320557,3.4866333,3.49487305,0.00485234428,0.00494326884,0.00518278684,0.00541056646,0.00484941248,0.00512935873,0.00458280416,0.00478919502,0.00407912256,0.00494393706,0.00351396063,0.00465216162,0.00379640469,0.00466747209,0.00371406297,0.00532621983,0,0,0,0,0,0,0,0,0,0,0,0,0,0,0,0,0,0,0,0,0,0,0,0
71,0.906000,3,1,1,0,0,3.52264404,3.51989746,3.51745605,3.52020264,3.51654053,3.52600098,3.51989746,3.51379395,3.50158691,3.50036621,3.50250244,3.48754883,3.48968506,3.48236084,3.49517822,3.50097656,0.00490304967,0.00565512525,0.0057128747,0.00529106054,0.00612049131,0.00540608866,0.00538454019,0.00524356589,0.00633830018,0.00489135832,0.00512954313,0.00445148582,0.00592234917,0.00606860919,0.00512130186,0.00510741584,0,0,0,0,0,0,0,0,0,0,0,0,0,0,0,0,0,0,0,0,0,0,0,0
72,0.906000,3,1,1,0,0,3.51379395,3.51196289,3.50708008,3.51074219,3.50616455,3.51715088,3.51196289,3.5043335,3.49121094,3.49090576,3.49334717,3.48052979,3.47869873,3.47412109,3.48693848,3.49029541,0.00322721223,0.00391416484,0.00380641082,0.00404918939,0.00401980337,0.00387699855,0.00309306011,0.0034237497,0.00253870571,0.0035738009,0.00366069633,0.00364241796,0.00196222099,0.00260508433,0.00295358314,0.00269662938,0,0,0,0,0,0,0,0,0,0,0,0,0,0,0,0,0,0,0,0,0,0,0,0
73,0.906000,3,1,1,0,0,3.50311279,3.50036621,3.49731445,3.50006104,3.49609375,3.5067749,3.50036621,3.49578857,3.48297119,3.47961426,3.48388672,3.47167969,3.46984863,3.46374512,3.47625732,3.48480225,-0.00160164258,-0.00175726856,-0.0014585309,-0.00189778011,-0.00116738491,-0.00165212119,-0.0016464066,-0.00131991075,-0.000937404286,-0.0012379454,-0.00136965374,-0.00157006946,-0.000467291393,-0.000839121116,-0.000364063191,0.000327784452,0,0,0,0,0,0,0,0,0,0,0,0,0,0,0,0,0,0,0,0,0,0,0,0
74,0.906000,3,1,1,0,0,3.50341797,3.50097656,3.49822998,3.50067139,3.4967041,3.5067749,3.50189209,3.49517822,3.48266602,3.48205566,3.48297119,3.47167969,3.46923828,3.46313477,3.4777832,3.48480225,0.00505162263,0.00535974558,0.00553520583,0.00427435199,0.00532749202,0.00435581338,0.00398274884,0.00432913844,0.00529443752,0.00594426785,0.00450760964,0.00555892102,0.00534637831,0.00331059471,0.00494581042,0.00381484046,0,0,0,0,0,0,0,0,0,0,0,0,0,0,0,0,0,0,0,0,0,0,0,0
75,0.906000,3,1,1,0,0,3.50891113,3.50585938,3.50219727,3.5055542,3.50006104,3.50952148,3.5055542,3.49945068,3.48327637,3.48449707,3.48388672,3.47412109,3.46893311,3.46832275,3.4765625,3.48602295,-0.0010956577,-0.00115028629,-0.00190946017,-0.00218726415,-0.00190753071,-0.00291500427,-0.00220073573,-0.00226271851,-0.00373712694,-0.00192970457,-0.00337001495,-0.00160157285,-0.00187967671,-0.00189803797,-0.00267680665,-0.00133123389,0,0,0,0,0,0,0,0,0,0,0,0,0,0,0,0,0,0,0,0,0,0,0,0
76,0.906000,3,1,1,0,0,3.51013184,3.5055542,3.50341797,3.50738525,3.50128174,3.51104736,3.50708008,3.50067139,3.49060059,3.48937988,3.49121094,3.47717285,3.47686768,3.47290039,3.48297119,3.49029541,0.010672193,0.0101895379,0.0104687111,0.0110375015,0.00954360235,0.0101366593,0.0109252464,0.0103026116,0.0122024044,0.0115013681,0.0122649744,0.00970840175,0.0116771869,0.0121005634,0.0115324697,0.0120927887,0,0,0,0,0,0,0,0,0,0,0,0,0,0,0,0,0,0,0,0,0,0,0,0
77,0.906000,3,1,1,0,0,3.51806641,3.51501465,3.51165771,3.51531982,3.51043701,3.52081299,3.51348877,3.50830078,3.49304199,3.4942627,3.49395752,3.4854126,3.47991943,3.47473145,3.48815918,3.49609375,-0.00187556644,-0.00118079106,-0.0015355096,-0.00139734987,-0.00107825128,-0.000896078709,-0.00160766055,-0.00175840803,-0.00134778139,-0.00261142082,-0.00238919165,-0.0024271016,-0.00268783048,-0.00226261397,-0.00195981958,-0.00277198688,0,0,0,0,0,0,0,0,0,0,0,0,0,0,0,0,0,0,0,0,0,0,0,0
78,0.906000,3,1,1,0,0,3.52020264,3.51715088,3.51348877,3.51867676,3.51287842,3.52386475,3.51898193,3.51318359,3.49761963,3.49639893,3.50189209,3.48480225,3.48571777,3.48144531,3.49243164,3.50006104,0.000832766236,3.25855217e-05,0.000683558581,0.000532214413,0.000547547941,-0.000414588139,0.000708011794,0.000576612656,0.000281239918,0.000984531711,0.0011785801,0.00154483283,0.00211812509,0.00226151664,0.000831639452,0.00169798639,0,0,0,0,0,0,0,0,0,0,0,0,0,0,0,0,0,0,0,0,0,0,0,0
79,0.906000,3,1,1,0,0,3.51196289,3.5067749,3.5043335,3.50921631,3.50189209,3.51226807,3.50952148,3.50341797,3.49212646,3.48724365,3.49334717,3.48052979,3.47808838,3.47412109,3.48571777,3.49090576,0.00601510564,0.00586962234,0.00588346506,0.00575862732,0.00563268829,0.00508354604,0.00506682973,0.00514302542,0.00529986527,0.00610083388,0.0061072344,0.00737555092,0.0064990446,0.00513496157,0.00603254139,0.00611496344,0,0,0,0,0,0,0,0,0,0,0,0,0,0,0,0,0,0,0,0,0,0,0,0
80,0.906000,3,1,1,0,0,3.50158691,3.49731445,3.4942627,3.4979248,3.49151611,3.50402832,3.49822998,3.49212646,3.47900391,3.4765625,3.48266602,3.4664917,3.46832275,3.46282959,3.47290039,3.47930908,0.00483548827,0.00365562015,0.00395427411,0.00462302938,0.00383072253,0.00372058013,0.00352152716,0.00446831295,0.00418761,0.00481073605,0.00395113183,0.00373641215,0.00344951358,0.00341505045,0.00300251413,0.00418885238,0,0,0,0,0,0,0,0,0,0,0,0,0,0,0,0,0,0,0,0,0,0,0,0
81,0.906000,3,1,1,0,0,3.51287842,3.51104736,3.50616455,3.51013184,3.50646973,3.51806641,3.51043701,3.50372314,3.49212646,3.49029541,3.49243164,3.47991943,3.47900391,3.47259521,3.48571777,3.48968506,0.00174846395,0.00307082455,0.00193149911,0.00207064487,0.00258849282,0.00322566088,0.00269066589,0.00222448609,0.00217610691,0.0021299785,0.00140826637,0.00223744381,0.00203288859,0.00178538659,0.00168199744,0.00178261939,0,0,0,0,0,0,0,0,0,0,0,0,0,0,0,0,0,0,0,0,0,0,0,0
82,1.078000,3,1,1,0,0,3.50280762,3.50036621,3.4967041,3.50036621,3.49609375,3.50738525,3.50036621,3.4942627,3.48022461,3.47717285,3.48266602,3.4664917,3.46862793,3.46313477,3.4753418,3.48022461,0.000334142824,0.000625736953,0.000543653674,0.000315007579,0.00104916689,0.000332361902,0.000359405734,0.000423985999,-0.00129985798,-0.000503857736,-0.00185294985,-0.000643825217,-0.00067757105,-9.33881965e-05,-0.000368307752,-0.00107732997,0,0,0,0,0,0,0,0,0,0,0,0,0,0,0,0,0,0,0,0,0,0,0,0
83,1.078000,3,1,1,0,0,3.50585938,3.50189209,3.49945068,3.50250244,3.49761963,3.50860596,3.50189209,3.49731445,3.48297119,3.48480225,3.4866333,3.47412109,3.47076416,3.46801758,3.4777832,3.48571777,0.0128605515,0.0122056808,0.0130824102,0.0128586106,0.0130423512,0.0125442185,0.0128029939,0.0118993251,0.012526867,0.0128103439,0.0126693193,0.0131576797,0.0130034238,0.0130539956,0.0129692256,0.0120903403,0,0,0,0,0,0,0,0,0,0,0,0,0,0,0,0,0,0,0,0,0,0,0,0
84,1.078000,3,1,1,0,0,3.50891113,3.5055542,3.50189209,3.50494385,3.50006104,3.51043701,3.50585938,3.49945068,3.48114014,3.48419189,3.48388672,3.47473145,3.46893311,3.46435547,3.47625732,3.4854126,-0.00208797888,-0.00174741063,-0.00255096634,-0.0026881313,-0.00186720537,-0.00177520793,-0.00129504129,-0.00229644473,-0.00207200786,2.30854785e-05,-0.00179845421,-0.000429769018,-0.00163122918,-0.00281259371,-0.000815840322,-0.000779872236,0,0,0,0,0,0,0,0,0,0,0,0,0,0,0,0,0,0,0,0,0,0,0,0
85,1.078000,3,1,1,0,0,3.52355957,3.52050781,3.515625,3.51989746,3.51593018,3.52600098,3.52111816,3.51379395,3.50067139,3.49731445,3.50250244,3.48724365,3.48937988,3.48236084,3.49609375,3.49975586,0.0113769248,0.0114669604,0.0112778908,0.0117597664,0.0115232188,0.0115112914,0.0112867737,0.0116878571,0.00964014698,0.010850749,0.0112920804,0.0111040464,0.0103702024,0.00943228882,0.0117081013,0.0109218396,0,0,0,0,0,0,0,0,0,0,0,0,0,0,0,0,0,0,0,0,0,0,0,0
86,1.078000,3,1,1,0,0,3.51654053,3.51379395,3.51013184,3.51287842,3.50799561,3.51928711,3.51196289,3.50646973,3.49090576,3.49334717,3.49304199,3.48266602,3.48052979,3.47381592,3.4866333,3.4954834,0.00631904509,0.00590195507,0.00640685437,0.00560328597,0.00568176713,0.00556581002,0.00568927033,0.00553612038,0.00427365024,0.00592197105,0.00371510512,0.00545540266,0.00484133651,0.00566633092,0.00442448538,0.00550853554,0,0,0,0,0,0,0,0,0,0,0,0,0,0,0,0,0,0,0,0,0,0,0,0
87,1.078000,3,1,1,0,0,3.5144043,3.51165771,3.50860596,3.51165771,3.50738525,3.51654053,3.51196289,3.50341797,3.49304199,3.49151611,3.49334717,3.48144531,3.47991943,3.47412109,3.48724365,3.49182129,0.00620327331,0.00723950984,0.00638985028,0.00689596822,0.0071266843,0.00647318037,0.00648483308,0.00579397846,0.00657488918,0.00630935561,0.00604934478,0.00750525715,0.00601039315,0.005564861,0.00675019529,0.00544501515,0,0,0,0,0,0,0,0,0,0,0,0,0,0,0,0,0,0,0,0,0,0,0,0
88,1.078000,3,1,1,0,0,3.51593018,3.51287842,3.51043701,3.51379395,3.50830078,3.51928711,3.51257324,3.50708008,3.49151611,3.49273682,3.49456787,3.48419189,3.47961426,3.47442627,3.48602295,3.49487305,0.00435710326,0.00334448786,0.00406795368,0.00378079014,0.00413064798,0.00384953176,0.0029633604,0.00383163011,0.00213746005,0.003436442,0.00284298323,0.00393834524,0.00367671531,0.00279797218,0.00289842393,0.00246663298,0,0,0,0,0,0,0,0,0,0,0,0,0,0,0,0,0,0,0,0,0,0,0,0
89,1.078000,3,1,1,0,0,3.50219727,3.49975586,3.49609375,3.49914551,3.49273682,3.5055542,3.50006104,3.49243164,3.48205566,3.47900391,3.48449707,3.47015381,3.4677124,3.46313477,3.47595215,3.47961426,-0.00625285227,-0.00600937894,-0.00619916804,-0.00571973389,-0.00606661523,-0.00506456196,-0.00520811044,-0.00612935191,-0.00499628531,-0.00492813764,-0.00493600871,-0.00524828304,-0.00479181483,-0.00510234199,-0.0053635682,-0.00494662719,0,0,0,0,0,0,0,0,0,0,0,0,0,0,0,0,0,0,0,0,0,0,0,0
90,1.078000,3,1,1,0,0,3.51013184,3.50708008,3.50402832,3.50769043,3.50067139,3.51287842,3.50769043,3.50128174,3.48632812,3.48632812,3.48815918,3.47564697,3.47381592,3.46923828,3.47869873,3.48724365,0.0073649371,0.00696469052,0.00717588887,0.00760090677,0.00640866812,0.00763584627,0.00751986774,0.00703979935,0.00585600175,0.00534074334,0.00568749895,0.00418616366,0.00480936887,0.00533953076,0.00391992135,0.00495175412,0,0,0,0,0,0,0,0,0,0,0,0,0,0,0,0,0,0,0,0,0,0,0,0
91,1.078000,3,1,1,0,0,3.51104736,3.50708008,3.50463867,3.50921631,3.50280762,3.51379395,3.50891113,3.50311279,3.49151611,3.48999023,3.49304199,3.48022461,3.47839355,3.47320557,3.48480225,3.49090576,0.00461931061,0.00427115615,0.00338543206,0.00417827535,0.00396125345,0.00463784952,0.00466257799,0.00430194102,0.00471147895,0.00507534295,0.0053555998,0.00572637236,0.0066732564,0.00444030482,0.00547314156,0.00481610792,0,0,0,0,0,0,0,0,0,0,0,0,0,0,0,0,0,0,0,0,0,0,0,0
92,1.078000,3,1,1,0,0,3.52172852,3.51715088,3.51501465,3.51898193,3.51470947,3.5244751,3.51959229,3.51257324,3.49853516,3.49639893,3.50036621,3.48632812,3.48815918,3.48205566,3.49456787,3.49975586,0.00653848518,0.00664454745,0.00715711433,0.00623568939,0.00715937465,0.00638603559,0.00692818407,0.00639476674,0.00650836155,0.00570493331,0.00637098122,0.0068396111,0.0076065883,0.00737950485,0.00670962408,0.00681222742,0,0,0,0,0,0,0,0,0,0,0,0,0,0,0,0,0,0,0,0,0,0,0,0
93,1.078000,3,1,1,0,0,3.50463867,3.50219727,3.49914551,3.50219727,3.49731445,3.50738525,3.50250244,3.4954834,3.48327637,3.48236084,3.48480225,3.47503662,3.46893311,3.46374512,3.4777832,3.48571777,-0.00352632673,-0.00323648751,-0.00280720461,-0.00349360472,-0.00297742477,-0.0036322074,-0.00317655085,-0.00365049159,-0.00265846075,-0.00106329331,-0.00320260413,-0.00152328226,-0.00368700689,-0.00405878667,-0.00260961847,0.000110866677,0,0,0,0,0,0,0,0,0,0,0,0,0,0,0,0,0,0,0,0,0,0,0,0
94,1.078000,3,1,1,0,0,3.5168457,3.51348877,3.51043701,3.51318359,3.50769043,3.51867676,3.51226807,3.50738525,3.49243164,3.49334717,3.49487305,3.48297119,3.47900391,3.47503662,3.48815918,3.49578857,-0.000374217052,-0.000767038553,0.000299854961,1.38425385e-05,-0.000289180025,-0.0006710905,-0.000709684566,-0.00033622887,-7.63526186e-05,0.000322564389,-0.000305028225,0.000422788493,-0.000942913408,0.000397249067,-0.000157358823,-0.00193151901,0,0,0,0,0,0,0,0,0,0,0,0,0,0,0,0,0,0,0,0,0,0,0,0
95,1.078000,3,1,1,0,0,3.51531982,3.51196289,3.50952148,3.51318359,3.50799561,3.51867676,3.51165771,3.5067749,3.49090576,3.49243164,3.4942627,3.48114014,3.48052979,3.47290039,3.48632812,3.49243164,0.00626467075,0.00615872722,0.00651907455,0.00648805872,0.00677759107,0.00609754864,0.00529775862,0.00662796386,0.00381451752,0.00566960732,0.005338307,0.0066400189,0.00438017445,0.00358750531,0.00561283808,0.0058837207,0,0,0,0,0,0,0,0,0,0,0,0,0,0,0,0,0,0,0,0,0,0,0,0
96,1.078000,3,1,1,0,0,3.515625,3.51226807,3.50982666,3.51379395,3.50830078,3.51867676,3.51196289,3.50708008,3.49182129,3.49334717,3.49456787,3.48449707,3.47961426,3.47503662,3.487854,3.49517822,0.00646854332,0.00646139728,0.00683914311,0.00647688657,0.00666820025,0.00676197698,0.00586933456,0.00676627643,0.00501764333,0.00645439606,0.00602602074,0.00875002146,0.00598377874,0.00512243807,0.00631718291,0.00637294492,0,0,0,0,0,0,0,0,0,0,0,0,0,0,0,0,0,0,0,0,0,0,0,0
97,1.078000,3,1,1,0,0,3.51104736,3.50738525,3.50372314,3.50860596,3.50158691,3.51165771,3.50769043,3.50158691,3.48968506,3.4866333,3.49273682,3.4765625,3.4765625,3.47320557,3.48480225,3.49121094,0.00992314331,0.00922665186,0.00967514701,0.00962638017,0.00888803788,0.0084798485,0.00922367629,0.00975901447,0.010313699,0.00886131451,0.0115521997,0.00849384721,0.0109078279,0.0107581113,0.0106128883,0.0105338264,0,0,0,0,0,0,0,0,0,0,0,0,0,0,0,0,0,0,0,0,0,0,0,0
98,1.078000,3,1,1,0,0,3.51531982,3.51257324,3.50982666,3.51379395,3.50860596,3.51867676,3.51104736,3.50646973,3.49090576,3.49456787,3.49334717,3.48175049,3.47869873,3.47351074,3.48693848,3.49487305,0.00647556037,0.00657827407,0.00727585424,0.0073581282,0.00726563437,0.00686686812,0.0063920822,0.00656565046,0.00620344048,0.00730330031,0.00545878429,0.00649354327,0.00665367069,0.00634894753,0.00679510226,0.00656826189,0,0,0,0,0,0,0,0,0,0,0,0,0,0,0,0,0,0,0,0,0,0,0,0
99,1.250000,3,1,1,0,0,3.52386475,3.52111816,3.5168457,3.52050781,3.51593018,3.52630615,3.51989746,3.51501465,3.50158691,3.50036621,3.50402832,3.49029541,3.48846436,3.48266602,3.49517822,3.49975586,0.00482984725,0.00528170355,0.0042580883,0.0047295806,0.00559920724,0.00502946321,0.00486647151,0.00433713431,0.00466223108,0.00337015558,0.00457131444,0.00236483011,0.00404595118,0.00393730123,0.00489829481,0.00275910459,0,0,0,0,0,0,0,0,0,0,0,0,0,0,0,0,0,0,0,0,0,0,0,0
100,1.250000,3,1,1,0,0,3.50463867,3.50036621,3.49853516,3.50067139,3.49700928,3.5067749,3.50036621,3.4942627,3.48144531,3.48266602,3.48358154,3.47229004,3.46954346,3.46435547,3.47625732,3.48571777,-0.00833202992,-0.00776370661,-0.008226173,-0.0079417713,-0.00828552898,-0.00727098761,-0.00743118813,-0.00831355061,-0.00825535879,-0.00655600755,-0.0080374144,-0.00697832741,-0.0070820218,-0.00725970045,-0.0076958742,-0.00600603223,0,0,0,0,0,0,0,0,0,0,0,0,0,0,0,0,0,0,0,0,0,0,0,0
101,1.250000,3,1,1,0,0,3.50219727,3.49975586,3.49517822,3.49975586,3.49517822,3.50646973,3.50036621,3.49365234,3.48144531,3.4777832,3.48297119,3.47076416,3.46832275,3.46282959,3.47564697,3.48083496,-0.00326336105,-0.00232253037,-0.00347270328,-0.00398559636,-0.00284483447,-0.00204657274,-0.00337590557,-0.003003777,-0.00436816597,-0.00386852561,-0.00438178796,-0.00369080971,-0.00403769314,-0.00436391914,-0.00355096138,-0.00318215229,0,0,0,0,0,0,0,0,0,0,0,0,0,0,0,0,0,0,0,0,0,0,0,0
102,1.250000,3,1,1,0,0,3.51593018,3.51348877,3.51013184,3.5144043,3.50830078,3.51959229,3.51196289,3.50738525,3.49151611,3.49334717,3.49456787,3.48236084,3.48083496,3.47412109,3.487854,3.49517822,0.00381771475,0.003874816,0.00445506908,0.00428964011,0.00418640021,0.0041862065,0.00333876535,0.00382635184,0.0014883735,0.00514714699,0.00305963191,0.00522541674,0.00269332575,0.00144048641,0.00251035509,0.00459699892,0,0,0,0,0,0,0,0,0,0,0,0,0,0,0,0,0,0,0,0,0,0,0,0
103,1.250000,3,1,1,0,0,3.50158691,3.4979248,3.49578857,3.50006104,3.49243164,3.50524902,3.50006104,3.49304199,3.48205566,3.47717285,3.48419189,3.47076416,3.46740723,3.46343994,3.47412109,3.48022461,-0.00316182338,-0.00330204889,-0.00263866829,-0.00357626914,-0.00310033257,-0.00272829854,-0.00294110808,-0.00375544722,-0.00287407381,-0.00354674854,-0.00272628246,-0.00215972238,-0.00266458816,-0.00277504721,-0.00225335872,-0.00406149263,0,0,0,0,0,0,0,0,0,0,0,0,0,0,0,0,0,0,0,0,0,0,0,0
104,1.250000,3,1,1,0,0,3.51074219,3.50708008,3.5043335,3.5067749,3.50189209,3.51287842,3.50799561,3.50067139,3.48937988,3.48632812,3.49273682,3.47961426,3.47686768,3.47198486,3.48388672,3.49029541,0.00511369156,0.00540759042,0.00493806461,0.00483042002,0.00495266914,0.00436404115,0.00603910536,0.00534347724,0.00699654547,0.00422523217,0.00756879756,0.00521906978,0.00741546927,0.007372858,0.00695117097,0.00585552445,0,0,0,0,0,0,0,0,0,0,0,0,0,0,0,0,0,0,0,0,0,0,0,0
105,1.250000,3,1,1,0,0,3.51165771,3.50708008,3.50494385,3.50860596,3.50250244,3.5144043,3.50799561,3.50311279,3.487854,3.48510742,3.48968506,3.47473145,3.47503662,3.46984863,3.48144531,3.49029541,0.00182798237,0.000963681843,0.00133017194,0.00206415658,0.00181381614,0.00158702885,0.00131102349,0.00148997689,0.00217850134,0.00134609593,0.00106412417,0.00106320111,0.000961994636,0.001553223,0.000336485886,0.00156704872,0,0,0,0,0,0,0,0,0,0,0,0,0,0,0,0,0,0,0,0,0,0,0,0
106,1.250000,3,1,1,0,0,3.51898193,3.515625,3.51196289,3.51623535,3.51074219,3.52050781,3.51593018,3.50952148,3.49761963,3.49487305,3.49975586,3.48480225,3.48266602,3.47930908,3.49121094,3.49914551,0.00858894642,0.00868018158,0.00903046876,0.00930141844,0.00820724666,0.00769848796,0.00745924423,0.00848232955,0.0081967283,0.00967685971,0.0101938313,0.00965228211,0.00831695087,0.00785645843,0.0090268245,0.00967720523,0,0,0,0,0,0,0,0,0,0,0,0,0,0,0,0,0,0,0,0,0,0,0,0
107,1.250000,3,1,1,0,0,3.50128174,3.4979248,3.49456787,3.49945068,3.49487305,3.50524902,3.50036621,3.49395752,3.48175049,3.47717285,3.48297119,3.47045898,3.46862793,3.46282959,3.47564697,3.48114014,0.000885662972,0.000907866633,0.00124256534,0.00220886548,0.00139510934,0.00176036393,0.00223904522,0.00126013113,0.00389038795,0.0026650792,0.00382856745,0.00416717259,0.00410899008,0.00372754945,0.00437759887,0.0032211903,0,0,0,0,0,0,0,0,0,0,0,0,0,0,0,0,0,0,0,0,0,0,0,0
108,1.250000,3,1,1,0,0,3.51348877,3.51074219,3.50585938,3.50891113,3.50463867,3.51654053,3.51104736,3.50372314,3.48968506,3.48999023,3.49212646,3.47991943,3.4765625,3.47412109,3.48327637,3.48968506,2.24297401e-05,0.000981828081,0.000451650005,5.39196189e-05,0.000457072281,0.000791882281,4.43343306e-05,0.000284224283,0.00133454974,0.00121606083,0.000552319922,0.0019626182,0.000209140591,0.0014308925,0.000422421843,0.000641966239,0,0,0,0,0,0,0,0,0,0,0,0,0,0,0,0,0,0,0,0,0,0,0,0
109,1.250000,3,1,1,0,0,3.51104736,3.50769043,3.50372314,3.50738525,3.50250244,3.51318359,3.50830078,3.50280762,3.49151611,3.48693848,3.49273682,3.48022461,3.47808838,3.47259521,3.48571777,3.49029541,0.00554309785,0.00512439292,0.00491038291,0.00556911249,0.00493680313,0.00499311648,0.00443784101,0.00551752839,0.00589550473,0.00459864922,0.00473068096,0.0051921038,0.00444530137,0.00484171696,0.00473533943,0.00471557304,0,0,0,0,0,0,0,0,0,0,0,0,0,0,0,0,0,0,0,0,0,0,0,0
110,1.250000,3,1,1,0,0,3.50769043,3.50402832,3.50128174,3.50463867,3.49945068,3.50982666,3.50372314,3.49945068,3.48144531,3.48327637,3.48480225,3.47442627,3.47076416,3.46496582,3.47839355,3.48480225,-0.00478610024,-0.00339369243,-0.00382555579,-0.0043575014,-0.0040806476,-0.00401514675,-0.00543947658,-0.00368840992,-0.00481902063,-0.00438406505,-0.00582091697,-0.00368472724,-0.00335024577,-0.00471603125,-0.00415446423,-0.00331545901,0,0,0,0,0,0,0,0,0,0,0,0,0,0,0,0,0,0,0,0,0,0,0,0
111,1.250000,3,1,1,0,0,3.51623535,3.51226807,3.50982666,3.51318359,3.50830078,3.51837158,3.51165771,3.50708008,3.49121094,3.49304199,3.49487305,3.48449707,3.48022461,3.47412109,3.48754883,3.49517822,0.00661328016,0.00512080034,0.00569984969,0.00539497286,0.00534116244,0.0052913269,0.0059535983,0.00571980234,0.00447498681,0.00569897844,0.00419393834,0.00508478889,0.0038476144,0.0043609268,0.00544119673,0.00576086342,0,0,0,0,0,0,0,0,0,0,0,0,0,0,0,0,0,0,0,0,0,0,0,0
112,1.250000,3,1,1,0,0,3.515625,3.51226807,3.50799561,3.51318359,3.50799561,3.51898193,3.51226807,3.5067749,3.49121094,3.49151611,3.49487305,3.48114014,3.47991943,3.47381592,3.48754883,3.49273682,-0.00020345657,0.000627311645,-0.000137488809,-0.000467473234,-0.000236105319,0.000317597034,-0.00150489702,0.000123631675,0.000367146626,0.00109995983,0.000182509888,0.000781285984,-0.000648044748,0.00078780076,-0.00143536972,0.00110812415,0,0,0,0,0,0,0,0,0,0,0,0,0,0,0,0,0,0,0,0,0,0,0,0
113,1.250000,3,1,1,0,0,3.51135254,3.50738525,3.5043335,3.50891113,3.50158691,3.51196289,3.50891113,3.50280762,3.49182129,3.4866333,3.49334717,3.48083496,3.4777832,3.47381592,3.48480225,3.49121094,0.00587797258,0.00611126656,0.00556457601,0.00563684665,0.00618247688,0.00637514982,0.00605412852,0.006210458,0.00639398396,0.00562284328,0.00593876513,0.00582123594,0.0068541565,0.00624238653,0.00598266162,0.00648543052,0,0,0,0,0,0,0,0,0,0,0,0,0,0,0,0,0,0,0,0,0,0,0,0
114,1.250000,3,1,1,0,0,3.51806641,3.51501465,3.51135254,3.515625,3.50952148,3.52050781,3.51470947,3.50891113,3.49304199,3.4942627,3.4979248,3.4854126,3.48083496,3.47564697,3.48693848,3.49609375,0.0110580167,0.0113367476,0.0110296849,0.0112720504,0.0115211802,0.0102970554,0.0109825619,0.0107092811,0.00993372966,0.0113189844,0.0104542477,0.0120270206,0.00852837041,0.00877479836,0.0105858203,0.0108728977,0,0,0,0,0,0,0,0,0,0,0,0,0,0,0,0,0,0,0,0,0,0,0,0
115,1.250000,3,1,1,0,0,3.51501465,3.51257324,3.50860596,3.51318359,3.50708008,3.51867676,3.51165771,3.5067749,3.49182129,3.49090576,3.49365234,3.48083496,3.48022461,3.47259521,3.48693848,3.49090576,0.00309607503,0.00391145144,0.00295813708,0.00272078114,0.00344750844,0.00398498215,0.00329867145,0.00185402506,0.00169657695,0.00125500723,0.00172407913,0.00120536494,0.00307977898,0.00278146379,0.00255020242,0.000206789875,0,0,0,0,0,0,0,0,0,0,0,0,0,0,0,0,0,0,0,0,0,0,0,0
116,1.422000,3,1,1,0,0,3.50799561,3.50494385,3.50158691,3.5055542,3.49914551,3.50921631,3.50524902,3.49975586,3.4866333,3.48480225,3.48937988,3.47595215,3.4753418,3.46923828,3.48175049,3.48907471,-0.00435528997,-0.00453532021,-0.00442890218,-0.00478154654,-0.00488075381,-0.00499615539,-0.00537118036,-0.00431565708,-0.0042321994,-0.00311650056,-0.00412322395,-0.00328452326,-0.00265950733,-0.00373683544,-0.00394296041,-0.00168984826,0,0,0,0,0,0,0,0,0,0,0,0,0,0,0,0,0,0,0,0,0,0,0,0
117,1.422000,3,1,1,0,0,3.50463867,3.50311279,3.49945068,3.50067139,3.49822998,3.50891113,3.50158691,3.4967041,3.48266602,3.48052979,3.48419189,3.47167969,3.46923828,3.46313477,3.47686768,3.48144531,0.00030547427,0.000732361572,0.00023593317,-0.000755505287,-7.90520498e-05,0.000989107299,4.63364122e-05,0.000406732259,-0.00261654798,-8.87616625e-05,-0.0018582159,-0.00070157391,-0.00201535318,-0.00130601099,-0.00147319632,-0.000892917509,0,0,0,0,0,0,0,0,0,0,0,0,0,0,0,0,0,0,0,0,0,0,0,0
118,1.422000,3,1,1,0,0,3.51715088,3.51379395,3.50982666,3.51409912,3.50891113,3.51776123,3.51135254,3.50738525,3.49212646,3.49304199,3.49365234,3.48419189,3.47869873,3.47412109,3.48724365,3.4954834,0.00614246773,0.00652536983,0.00582140218,0.00566786202,0.0059894966,0.00655466411,0.00506638922,0.00585121568,0.00559103768,0.00502278795,0.00531435199,0.0043663024,0.00543664303,0.00523888925,0.00626723375,0.00429762434,0,0,0,0,0,0,0,0,0,0,0,0,0,0,0,0,0,0,0,0,0,0,0,0
119,1.422000,3,1,1,0,0,3.51165771,3.50708008,3.50524902,3.50982666,3.50219727,3.5144043,3.50921631,3.50311279,3.49090576,3.48632812,3.49243164,3.4765625,3.47717285,3.47259521,3.48388672,3.49090576,-0.00262761628,-0.00393940462,-0.00261914334,-0.00244667311,-0.00364566268,-0.00309352623,-0.00315653742,-0.00214947062,-0.00214247708,-0.00268682209,-0.00128685124,-0.00274522183,-0.00190446025,-0.0021566269,-0.00251783943,-0.00139639503,0,0,0,0,0,0,0,0,0,0,0,0,0,0,0,0,0,0,0,0,0,0,0,0
120,1.422000,3,1,1,0,0,3.51470947,3.51348877,3.50891113,3.51135254,3.50769043,3.51806641,3.51104736,3.50524902,3.49151611,3.49151611,3.49395752,3.48114014,3.47839355,3.47381592,3.48632812,3.49121094,-0.00455541117,-0.00344970776,-0.00415074732,-0.00452262769,-0.00391690154,-0.00334606995,-0.00466938503,-0.00469130138,-0.0038040604,-0.00334442733,-0.00319486554,-0.00320287934,-0.00339195388,-0.0033564833,-0.00335537316,-0.0036860921,0,0,0,0,0,0,0,0,0,0,0,0,0,0,0,0,0,0,0,0,0,0,0,0
121,1.422000,3,1,1,0,0,3.50891113,3.50646973,3.50250244,3.50738525,3.50128174,3.51074219,3.50616455,3.50097656,3.48876953,3.48632812,3.49304199,3.4765625,3.47564697,3.47259521,3.48327637,3.49060059,0.00389018911,0.00334298378,0.00362009672,0.00348518812,0.00306699146,0.00260810461,0.0037816735,0.00382132549,0.00358446874,0.00292921602,0.00433154637,0.00244005164,0.00347483507,0.00390310539,0.00359052652,0.00403556786,0,0,0,0,0,0,0,0,0,0,0,0,0,0,0,0,0,0,0,0,0,0,0,0
122,1.422000,3,1,1,0,0,3.50738525,3.50311279,3.50128174,3.50524902,3.49945068,3.50952148,3.5055542,3.49914551,3.4866333,3.48480225,3.48907471,3.47473145,3.47503662,3.46954346,3.48144531,3.48754883,0.00534832478,0.00435647182,0.00556299696,0.00573448977,0.00523293763,0.00519536017,0.003911837,0.00517802127,0.00451663695,0.00528789777,0.00562704587,0.00536551327,0.00524047529,0.00376549852,0.00428551994,0.00504088774,0,0,0,0,0,0,0,0,0,0,0,0,0,0,0,0,0,0,0,0,0,0,0,0
123,1.422000,3,1,1,0,0,3.51318359,3.50891113,3.50799561,3.51043701,3.50585938,3.51654053,3.51074219,3.50372314,3.49243164,3.49182129,3.49304199,3.48144531,3.47961426,3.47412109,3.4866333,3.49456787,0.00587797025,0.00670058094,0.00723459851,0.00564486068,0.00752685824,0.00646844693,0.00665679201,0.00631632283,0.00565342791,0.00672731129,0.00467379298,0.00552127138,0.00606396701,0.00429984555,0.00669875275,0.00715150125,0,0,0,0,0,0,0,0,0,0,0,0,0,0,0,0,0,0,0,0,0,0,0,0
124,1.422000,3,1,1,0,0,3.50494385,3.50189209,3.49700928,3.50067139,3.49639893,3.50708008,3.50128174,3.49578857,3.48114014,3.48175049,3.48480225,3.47167969,3.46954346,3.46343994,3.47717285,3.48480225,0.00197522854,0.00270956568,0.00153634604,0.00215326436,0.00247800071,0.00210470776,0.00212982949,0.00219206465,0.00270930096,0.00246797316,0.00216867542,0.00278151082,0.00108210009,0.002352037,0.00200258568,0.00169132405,0,0,0,0,0,0,0,0,0,0,0,0,0,0,0,0,0,0,0,0,0,0,0,0
125,1.422000,3,1,1,0,0,3.51531982,3.51226807,3.50921631,3.51135254,3.50708008,3.51745605,3.51104736,3.50585938,3.49273682,3.49273682,3.49365234,3.48236084,3.48022461,3.47381592,3.48693848,3.49609375,0.0100406986,0.00939399283,0.0101921214,0.0108952662,0.010074147,0.011169116,0.0111485319,0.00967537053,0.00995624252,0.00895973668,0.00929492991,0.00876739062,0.0098160198,0.0101941647,0.00963683147,0.00984682515,0,0,0,0,0,0,0,0,0,0,0,0,0,0,0,0,0,0,0,0,0,0,0,0
126,1.422000,3,1,1,0,0,3.50616455,3.50341797,3.50006104,3.50341797,3.49731445,3.50738525,3.50250244,3.49761963,3.48358154,3.48449707,3.487854,3.47503662,3.47045898,3.46862793,3.47717285,3.4866333,-0.00637367275,-0.00694848225,-0.00712225679,-0.00701198028,-0.00853184238,-0.00691247825,-0.00684966566,-0.00724684913,-0.00648220163,-0.00750288228,-0.00704559684,-0.00554556819,-0.00684816157,-0.00569558749,-0.00754333241,-0.00714463973,0,0,0,0,0,0,0,0,0,0,0,0,0,0,0,0,0,0,0,0,0,0,0,0
127,1.422000,3,1,1,0,0,3.52325439,3.52081299,3.51745605,3.51989746,3.51593018,3.52600098,3.52081299,3.51318359,3.50036621,3.50036621,3.50250244,3.48968506,3.487854,3.48236084,3.49609375,3.50036621,0.0066599506,0.00715979701,0.00676821219,0.00574835716,0.00747267716,0.0070416457,0.00691850716,0.00597776752,0.00757920509,0.00762756635,0.00788853783,0.00783155113,0.0076932027,0.00729192514,0.00864328444,0.00721517298,0,0,0,0,0,0,0,0,0,0,0,0,0,0,0,0,0,0,0,0,0,0,0,0
128,1.422000,3,1,1,0,0,3.50921631,3.50616455,3.50280762,3.50585938,3.50158691,3.51074219,3.50616455,3.50036621,3.4854126,3.48571777,3.48419189,3.47442627,3.47076416,3.46832275,3.47717285,3.48571777,0.00035166819,1.28911342e-05,-0.000182280142,-0.000111920002,0.000368266134,-0.000208989979,0.000395868759,0.000488416001,0.000713780988,0.000529816316,-0.00119352236,-2.78290827e-06,-0.00019740843,0.000457146991,-0.000967114989,8.4918458e-05,0,0,0,0,0,0,0,0,0,0,0,0,0,0,0,0,0,0,0,0,0,0,0,0
129,1.422000,3,1,1,0,0,3.50616455,3.50311279,3.49975586,3.50311279,3.49731445,3.50921631,3.50189209,3.4967041,3.4854126,3.48419189,3.4854126,3.47412109,3.46984863,3.465271,3.4765625,3.48632812,-0.00240891054,-0.00186990108,-0.00222815666,-0.002069165,-0.00306960195,-0.00194306811,-0.00244119298,-0.00165387488,-0.00287037063,-0.00155742047,-0.00312820496,-0.00152233127,-0.00165421981,-0.00168532575,-0.00316030555,-0.00130090001,0,0,0,0,0,0,0,0,0,0,0,0,0,0,0,0,0,0,0,0,0,0,0,0
130,1.422000,3,1,1,0,0,3.51379395,3.51104736,3.50830078,3.51043701,3.50646973,3.5168457,3.51013184,3.5043335,3.49243164,3.49151611,3.49395752,3.48083496,3.47900391,3.47320557,3.48602295,3.49395752,0.00787256192,0.00768348295,0.00802586786,0.00776359998,0.00756002078,0.0071974108,0.00752348499,0.0077220602,0.00699259387,0.00722714234,0.00762677845,0.00733665656,0.0063097151,0.00733563583,0.005893277,0.00753090484,0,0,0,0,0,0,0,0,0,0,0,0,0,0,0,0,0,0,0,0,0,0,0,0
131,1.422000,3,1,1,0,0,3.50585938,3.50311279,3.49945068,3.50158691,3.49761963,3.50830078,3.50250244,3.49700928,3.48144531,3.48236084,3.48419189,3.47137451,3.46984863,3.46466064,3.4777832,3.48510742,-0.00489860866,-0.00517572556,-0.00516609428,-0.00546292309,-0.00523277186,-0.0045777373,-0.00564909307,-0.00459068641,-0.00413656235,-0.0037507466,-0.00350686256,-0.00441616261,-0.00344889797,-0.00357879326,-0.00489334716,-0.00414280873,0,0,0,0,0,0,0,0,0,0,0,0,0,0,0,0,0,0,0,0,0,0,0,0
132,1.422000,3,1,1,0,0,3.51043701,3.50585938,3.50402832,3.50646973,3.50128174,3.51104736,3.50738525,3.50128174,3.48968506,3.48510742,3.49243164,3.47625732,3.47625732,3.47290039,3.48388672,3.49060059,0.00725593185,0.00598068256,0.00701213721,0.00691489503,0.00617521256,0.00666831853,0.00710145943,0.00633351831,0.00780079933,0.00593673903,0.00816162024,0.00674884394,0.00810063072,0.00781459175,0.00810911227,0.00709848478,0,0,0,0,0,0,0,0,0,0,0,0,0,0,0,0,0,0,0,0,0,0,0,0
133,1.422000,3,1,1,0,0,3.50708008,3.50372314,3.50097656,3.50494385,3.49914551,3.50952148,3.50311279,3.49822998,3.48632812,3.4854126,3.48907471,3.47595215,3.47381592,3.46893311,3.47900391,3.48907471,0.00391589012,0.00361623778,0.00377063733,0.00386914541,0.00353200873,0.00414440269,0.00257170759,0.00368365785,0.00339903194,0.00426666439,0.00187800219,0.0034977051,0.00275122933,0.00301735383,0.00171820121,0.00426724134,0,0,0,0,0,0,0,0,0,0,0,0,0,0,0,0,0,0,0,0,0,0,0,0
134,1.594000,3,1,1,0,0,3.51043701,3.50891113,3.50463867,3.50952148,3.50311279,3.515625,3.50982666,3.50189209,3.487854,3.48571777,3.48999023,3.47564697,3.47564697,3.47076416,3.48205566,3.48907471,0.000966802705,0.00091022905,0.000975135365,0.00146256515,0.000638079015,0.000806312077,0.00211126264,0.00103859452,0.00063203735,-0.000409825792,-0.00100814563,0.000875274651,9.55081341e-05,0.000592649332,0.000779358204,0.000280272216,0,0,0,0,0,0,0,0,0,0,0,0,0,0,0,0,0,0,0,0,0,0,0,0
135,1.594000,3,1,1,0,0,3.51135254,3.50646973,3.50463867,3.50952148,3.50158691,3.51409912,3.50891113,3.50250244,3.49182129,3.49029541,3.49304199,3.48114014,3.47839355,3.47320557,3.48480225,3.48968506,0.00699915504,0.00694269827,0.00699270098,0.00688931765,0.00640576752,0.00704838615,0.0072250003,0.00691178674,0.00557341473,0.00739148539,0.00732146483,0.00708966004,0.00489545939,0.0065848832,0.00729270186,0.00626226468,0,0,0,0,0,0,0,0,0,0,0,0,0,0,0,0,0,0,0,0,0,0,0,0
136,1.594000,3,1,1,0,0,3.515625,3.51287842,3.50921631,3.51165771,3.50769043,3.51898193,3.51196289,3.50738525,3.49121094,3.49121094,3.49487305,3.48144531,3.48022461,3.47351074,3.4866333,3.49212646,0.00153509225,0.000897765509,0.00153123424,0.00107838912,0.000735918293,0.00121714722,0.00160069042,0.00198878255,-0.00162889645,-0.000202603755,-0.00114482641,-0.000238487235,-0.000421125704,0.000473696447,-0.000594065117,-0.000236987777,0,0,0,0,0,0,0,0,0,0,0,0,0,0,0,0,0,0,0,0,0,0,0,0
137,1.594000,3,1,1,0,0,3.50372314,3.50128174,3.49822998,3.49975586,3.49700928,3.50738525,3.50219727,3.49456787,3.48236084,3.48114014,3.48388672,3.47137451,3.47015381,3.46374512,3.47747803,3.48480225,-0.0052311779,-0.00506563578,-0.0053913286,-0.00660087308,-0.0050930148,-0.00521330209,-0.00507386215,-0.00620208727,-0.00555872219,-0.00396196684,-0.00502554886,-0.00401927158,-0.00508250063,-0.00617464911,-0.00478452351,-0.00460731611,0,0,0,0,0,0,0,0,0,0,0,0,0,0,0,0,0,0,0,0,0,0,0,0
138,1.594000,3,1,1,0,0,3.51104736,3.50646973,3.50402832,3.50860596,3.50189209,3.51226807,3.50769043,3.50128174,3.48968506,3.48571777,3.49243164,3.47686768,3.47625732,3.47229004,3.48358154,3.49090576,0.00479224743,0.00467301812,0.00481169671,0.00551383663,0.00440187706,0.00412419578,0.00494256802,0.00479628239,0.00442319177,0.0028319126,0.00228321925,0.00349028874,0.00343480473,0.00412660232,0.00191680121,0.00386322616,0,0,0,0,0,0,0,0,0,0,0,0,0,0,0,0,0,0,0,0,0,0,0,0
139,1.594000,3,1,1,0,0,3.51531982,3.51165771,3.50921631,3.51196289,3.5067749,3.51806641,3.51074219,3.50646973,3.49273682,3.49212646,3.49395752,3.48419189,3.47930908,3.47381592,3.4866333,3.4954834,0.0135340616,0.0133447377,0.0122121098,0.0125385579,0.0127104381,0.0130973188,0.0127241863,0.0132432813,0.0121523747,0.0121536097,0.0126082785,0.0127291158,0.0123493467,0.0119397417,0.0134506505,0.0120331673,0,0,0,0,0,0,0,0,0,0,0,0,0,0,0,0,0,0,0,0,0,0,0,0
140,1.594000,3,1,1,0,0,3.50585938,3.50280762,3.49853516,3.50250244,3.49700928,3.50860596,3.50219727,3.4967041,3.48205566,3.48022461,3.48449707,3.47045898,3.47015381,3.46313477,3.47717285,3.48144531,-0.00269621541,-0.00306691439,-0.00342421187,-0.00254533929,-0.00314884353,-0.00152860105,-0.00214491202,-0.00285737892,-0.00260460423,-0.00434613461,-0.00424837228,-0.0044267606,-0.00505790906,-0.00379489921,-0.00436833967,-0.00452793483,0,0,0,0,0,0,0,0,0,0,0,0,0,0,0,0,0,0,0,0,0,0,0,0
141,1.594000,3,1,1,0,0,3.51257324,3.50830078,3.50524902,3.50952148,3.50341797,3.51531982,3.51043701,3.50341797,3.49121094,3.49121094,3.4942627,3.48114014,3.48022461,3.47351074,3.48632812,3.49182129,0.00771924807,0.00670775725,0.00738558546,0.00749458559,0.00745159807,0.0063840244,0.00706799095,0.0069159898,0.00746634603,0.00744874589,0.00835259724,0.00791244023,0.00648214016,0.00720936293,0.00784820598,0.00683301454,0,0,0,0,0,0,0,0,0,0,0,0,0,0,0,0,0,0,0,0,0,0,0,0
142,1.594000,3,1,1,0,0,3.51715088,3.51379395,3.51074219,3.51470947,3.50921631,3.51928711,3.51318359,3.50830078,3.49273682,3.49304199,3.49700928,3.48266602,3.48083496,3.47442627,3.487854,3.4954834,0.00481216889,0.00539232558,0.00452121254,0.00506311515,0.00553779257,0.0051396424,0.00481332093,0.00476858206,0.00455341581,0.0048643183,0.00549188908,0.00290792901,0.00517218374,0.00374230603,0.00531228865,0.00266192062,0,0,0,0,0,0,0,0,0,0,0,0,0,0,0,0,0,0,0,0,0,0,0,0
143,1.594000,3,1,1,0,0,3.50494385,3.50189209,3.49700928,3.50067139,3.4967041,3.50769043,3.50036621,3.49365234,3.48114014,3.47869873,3.48114014,3.46679688,3.46801758,3.46343994,3.47564697,3.48083496,-0.00387350121,-0.00285178982,-0.00428097555,-0.00407319516,-0.00377732492,-0.00363933155,-0.0035572229,-0.00384323881,-0.0064922669,-0.00478313025,-0.00500479853,-0.00506845862,-0.00595175801,-0.00487321615,-0.00665736571,-0.00527845835,0,0,0,0,0,0,0,0,0,0,0,0,0,0,0,0,0,0,0,0,0,0,0,0
144,1.594000,3,1,1,0,0,3.51165771,3.50982666,3.50646973,3.51043701,3.50585938,3.51623535,3.51013184,3.50341797,3.49029541,3.4866333,3.49060059,3.4765625,3.4765625,3.47259521,3.4854126,3.49060059,0.00835100934,0.00881350134,0.0086266771,0.00850226916,0.0092144059,0.00889463257,0.00791057665,0.00868141651,0.00961730443,0.00871791597,0.00636395207,0.00928229559,0.0077134911,0.00760565,0.0077308137,0.00817798078,0,0,0,0,0,0,0,0,0,0,0,0,0,0,0,0,0,0,0,0,0,0,0,0
145,1.594000,3,1,1,0,0,3.50280762,3.50158691,3.4967041,3.50006104,3.49609375,3.50708008,3.50067139,3.49456787,3.48205566,3.47961426,3.48388672,3.46984863,3.46923828,3.46343994,3.47595215,3.48052979,-0.00750295399,-0.00724417809,-0.0077232779,-0.00817733444,-0.00737171806,-0.00751212798,-0.00748074474,-0.00767140277,-0.00671294797,-0.00801931508,-0.00734191015,-0.00716086058,-0.00744106341,-0.00680739805,-0.00696396921,-0.00723260269,0,0,0,0,0,0,0,0,0,0,0,0,0,0,0,0,0,0,0,0,0,0,0,0
146,1.594000,3,1,1,0,0,3.51318359,3.51165771,3.50738525,3.51074219,3.5067749,3.51654053,3.51226807,3.50616455,3.49243164,3.49151611,3.4942627,3.48175049,3.47991943,3.47412109,3.48754883,3.49456787,0.00798518024,0.0078668613,0.00886109844,0.00785218552,0.0076653338,0.00875509996,0.00882740226,0.0085426867,0.00864981487,0.00800522696,0.00894919876,0.00692490069,0.00903441478,0.00817173161,0.00855649635,0.00816799514,0,0,0,0,0,0,0,0,0,0,0,0,0,0,0,0,0,0,0,0,0,0,0,0
147,1.594000,3,1,1,0,0,3.51318359,3.50769043,3.50585938,3.51074219,3.5055542,3.51531982,3.51104736,3.5043335,3.49182129,3.48815918,3.49273682,3.48175049,3.47869873,3.47351074,3.48754883,3.49029541,0.00123503862,0.000440220698,0.000320046354,-6.55664408e-05,0.0012251836,0.00106112333,-0.000352923351,0.000255630235,-0.00026358146,0.000513919513,0.00034140877,0.00101245265,-0.000218556932,-0.000514980929,0.000382322702,6.49521971e-05,0,0,0,0,0,0,0,0,0,0,0,0,0,0,0,0,0,0,0,0,0,0,0,0
148,1.594000,3,1,1,0,0,3.52478027,3.52142334,3.51867676,3.52203369,3.51715088,3.52630615,3.52111816,3.51470947,3.50036621,3.50067139,3.50341797,3.48999023,3.48968506,3.48266602,3.49639893,3.49945068,0.00356936199,0.00372430356,0.00416374207,0.00348840072,0.00327292015,0.00265248585,0.00375884632,0.00370861986,0.00503584556,0.00499436632,0.00547000486,0.0050674621,0.00521776965,0.00423396705,0.00342408009,0.00410448387,0,0,0,0,0,0,0,0,0,0,0,0,0,0,0,0,0,0,0,0,0,0,0,0
149,1.594000,3,1,1,0,0,3.51196289,3.51043701,3.50646973,3.50891113,3.5055542,3.515625,3.51104736,3.50311279,3.49243164,3.49060059,3.4942627,3.48114014,3.47930908,3.47381592,3.48693848,3.49456787,0.000146075181,0.000844761147,-0.000289843476,-0.000391807,0.00100123754,0.000917032827,0.000860443164,-0.00056777976,-0.000392012647,-0.0017743865,-0.00117335049,0.000120711673,-0.000408170104,-0.000528292614,-0.00055403763,-0.00013116331,0,0,0,0,0,0,0,0,0,0,0,0,0,0,0,0,0,0,0,0,0,0,0,0
150,1.594000,3,1,1,0,0,3.50952148,3.5067749,3.50341797,3.50616455,3.50158691,3.51196289,3.50738525,3.50128174,3.48327637,3.48602295,3.48846436,3.47473145,3.47045898,3.46954346,3.4777832,3.48693848,0.00342757697,0.00366424699,0.00336324726,0.00358497817,0.00337678078,0.00400475459,0.00350965327,0.00361952954,0.00116061443,0.00291491207,0.00326177571,0.00238543842,0.00145846116,0.00303991046,0.00268984982,0.00156346429,0,0,0,0,0,0,0,0,0,0,0,0,0,0,0,0,0,0,0,0,0,0,0,0
151,1.750000,3,1,1,0,0,3.51104736,3.50738525,3.50463867,3.50860596,3.50280762,3.51409912,3.50952148,3.50219727,3.49151611,3.49029541,3.49304199,3.47961426,3.47839355,3.47290039,3.48419189,3.48937988,0.00503939018,0.00504316855,0.00492163422,0.0050256364,0.00489512179,0.00451605394,0.00390860299,0.00489548175,0.00581850205,0.00576996431,0.00438385084,0.00663816184,0.00465367129,0.00435664272,0.00443903264,0.00547632482,0,0,0,0,0,0,0,0,0,0,0,0,0,0,0,0,0,0,0,0,0,0,0,0
152,1.750000,3,1,1,0,0,3.50769043,3.50311279,3.50097656,3.50494385,3.49975586,3.51043701,3.50341797,3.49853516,3.48754883,3.48480225,3.48937988,3.47595215,3.47106934,3.46923828,3.47930908,3.48876953,0.00107748318,0.00120033463,0.000850224402,0.00105765264,0.00147102214,0.00106773851,0.000706016377,0.00108232826,0.00202125148,0.000720532378,0.00121117511,0.00112160831,0.00155090238,0.000743828365,0.00158667553,0.0029733351,0,0,0,0,0,0,0,0,0,0,0,0,0,0,0,0,0,0,0,0,0,0,0,0
153,1.750000,3,1,1,0,0,3.51409912,3.51196289,3.5067749,3.51043701,3.50708008,3.51806641,3.51104736,3.50463867,3.49212646,3.49121094,3.49395752,3.48022461,3.47900391,3.47381592,3.48632812,3.49060059,0.0123435371,0.0127828848,0.0122076096,0.0119684255,0.0127112633,0.012503841,0.0124872644,0.0126792239,0.0115056932,0.0112007502,0.0120615019,0.0113754394,0.0122048482,0.0121676512,0.0121574588,0.011829244,0,0,0,0,0,0,0,0,0,0,0,0,0,0,0,0,0,0,0,0,0,0,0,0
154,1.750000,3,1,1,0,0,3.50646973,3.50463867,3.50067139,3.50372314,3.49853516,3.50921631,3.50280762,3.49853516,3.48266602,3.48236084,3.48327637,3.47229004,3.47015381,3.46313477,3.47747803,3.48449707,0.00109000516,0.00120767509,0.000974049326,0.000614390476,0.000675471034,0.00205961964,0.000920505146,0.00104001584,-0.000631338626,-0.000270828605,-0.000756860827,-0.000148032792,-0.00109712919,-0.00149534922,-0.00140231859,0.000766822137,0,0,0,0,0,0,0,0,0,0,0,0,0,0,0,0,0,0,0,0,0,0,0,0
155,1.750000,3,1,1,0,0,3.51135254,3.50891113,3.50585938,3.50952148,3.50524902,3.51501465,3.51043701,3.50372314,3.49121094,3.49060059,3.49365234,3.48052979,3.47900391,3.47259521,3.4866333,3.49090576,0.00254629878,0.00238500303,0.00206376496,0.00226141745,0.00297630904,0.0026925886,0.00334288902,0.0028126142,0.00417722575,0.00429330021,0.00381982396,0.0036411623,0.00497213891,0.00311110332,0.00513835577,0.00222354033,0,0,0,0,0,0,0,0,0,0,0,0,0,0,0,0,0,0,0,0,0,0,0,0
156,1.750000,3,1,1,0,0,3.50219727,3.50006104,3.4967041,3.50097656,3.49578857,3.50646973,3.50158691,3.49365234,3.48266602,3.48052979,3.48327637,3.47198486,3.46893311,3.46282959,3.47747803,3.48449707,0.00386537635,0.00462213391,0.0043853838,0.00419561751,0.00422990927,0.00435249368,0.00322222221,0.00372127793,0.00520770112,0.00477581332,0.00403039949,0.00518252654,0.00370148942,0.00295943627,0.00332899205,0.00463997666,0,0,0,0,0,0,0,0,0,0,0,0,0,0,0,0,0,0,0,0,0,0,0,0
157,1.750000,3,1,1,0,0,3.50616455,3.50311279,3.50006104,3.50189209,3.49700928,3.50769043,3.50250244,3.49761963,3.48236084,3.48480225,3.48510742,3.47290039,3.47015381,3.46405029,3.47839355,3.48571777,-0.0018420117,-0.00147051259,-0.00143690768,-0.00150975771,-0.00196596095,-0.00137251744,-0.00102975185,-0.0015337856,-0.000255931343,0.000162036958,-0.000263156311,0.000520117581,0.000351996277,-0.000937453588,-0.000837366679,-0.00140590651,0,0,0,0,0,0,0,0,0,0,0,0,0,0,0,0,0,0,0,0,0,0,0,0
158,1.750000,3,1,1,0,0,3.51135254,3.50891113,3.50524902,3.50891113,3.50494385,3.51531982,3.50952148,3.50311279,3.48815918,3.48693848,3.49243164,3.47625732,3.47686768,3.47229004,3.48358154,3.49029541,0.000373553485,0.00079407054,-7.9833786e-05,-0.000167979393,0.000980276847,0.000566889066,0.000522555551,0.00049828575,-0.00109087734,0.000870757271,-0.00125242257,-0.000820371439,-0.000503141899,-4.02644509e-05,-0.00103692955,0.000294235069,0,0,0,0,0,0,0,0,0,0,0,0,0,0,0,0,0,0,0,0,0,0,0,0
159,1.750000,3,1,1,0,0,3.51654053,3.5144043,3.51074219,3.51409912,3.50982666,3.51898193,3.51287842,3.50769043,3.49212646,3.49395752,3.4942627,3.48449707,3.47991943,3.4765625,3.48754883,3.4967041,0.0073575452,0.00803257152,0.00788160134,0.00792129245,0.00797764771,0.00701217679,0.00774257118,0.0077212234,0.00624796655,0.00725491391,0.00648272736,0.00826581381,0.0060138288,0.00629670639,0.0059589115,0.0076129972,0,0,0,0,0,0,0,0,0,0,0,0,0,0,0,0,0,0,0,0,0,0,0,0
160,1.750000,3,1,1,0,0,3.50280762,3.49975586,3.49578857,3.49914551,3.49334717,3.50585938,3.50067139,3.49456787,3.48022461,3.4777832,3.48297119,3.47015381,3.46710205,3.46343994,3.47564697,3.48052979,0.00525924843,0.00564844068,0.00484452117,0.00473583955,0.00549741881,0.00572989369,0.00522350427,0.00518828444,0.00633140607,0.00448443368,0.00669412129,0.0055149924,0.0058999341,0.00589179993,0.00557303941,0.00401319284,0,0,0,0,0,0,0,0,0,0,0,0,0,0,0,0,0,0,0,0,0,0,0,0
161,1.766000,3,1,1,0,0,3.50799561,3.50402832,3.50158691,3.50524902,3.49945068,3.51043701,3.50463867,3.49884033,3.48724365,3.48571777,3.48937988,3.47564697,3.47503662,3.46984863,3.48175049,3.49029541,0.00188232621,0.00121851894,0.00126701,0.00200231606,0.00229268358,0.001961292,0.00226309011,0.00163137936,0.00200566603,0.00277602044,0.0018603038,0.00297636935,0.0024210806,0.00108563609,0.00209183432,0.002099948,0,0,0,0,0,0,0,0,0,0,0,0,0,0,0,0,0,0,0,0,0,0,0,0
162,1.766000,3,1,1,0,0,3.50952148,3.5055542,3.50372314,3.50616455,3.50097656,3.51104736,3.5067749,3.49975586,3.48693848,3.48480225,3.48907471,3.47473145,3.47473145,3.46923828,3.48022461,3.48876953,0.000872719917,0.000356386532,0.00143708917,0.000749260886,0.00051633874,0.00101960974,0.000124747399,0.000541213958,0.00100072299,0.00128467102,0.00200224738,0.00181226002,0.00218401593,0.00150431087,0.000383642619,0.00236167596,0,0,0,0,0,0,0,0,0,0,0,0,0,0,0,0,0,0,0,0,0,0,0,0
163,1.766000,3,1,1,0,0,3.50341797,3.50158691,3.49700928,3.50067139,3.4967041,3.5067749,3.50158691,3.4954834,3.48266602,3.48083496,3.48480225,3.47106934,3.47015381,3.46435547,3.47686768,3.48144531,-0.00165760494,-0.00146742491,-0.00142666162,-0.00167227385,-0.000815775478,7.80189512e-05,-0.000559484353,-0.00130535092,-0.00153569295,-0.00255574659,-0.001488804,-0.00271552429,-0.0019366974,-0.00213175896,-0.00123158738,-0.00212001149,0,0,0,0,0,0,0,0,0,0,0,0,0,0,0,0,0,0,0,0,0,0,0,0
164,1.766000,3,1,1,0,0,3.50891113,3.50463867,3.50280762,3.50646973,3.50128174,3.50891113,3.50463867,3.49945068,3.48754883,3.48632812,3.48968506,3.47503662,3.4753418,3.47015381,3.47930908,3.48968506,0.000172153697,0.00023761217,0.0007306427,0.000909963041,0.000675608986,-0.000459412695,0.000287439325,0.000638714293,-0.000337296398,0.00129426271,-0.000287353992,0.000524616684,-5.51789417e-05,0.000828580232,-0.00061354239,0.00146493141,0,0,0,0,0,0,0,0,0,0,0,0,0,0,0,0,0,0,0,0,0,0,0,0
165,1.766000,3,1,1,0,0,3.51043701,3.50646973,3.50341797,3.5067749,3.50128174,3.51318359,3.50799561,3.50219727,3.48724365,3.48571777,3.48632812,3.4753418,3.47381592,3.46893311,3.47900391,3.48907471,0.00276909722,0.00308385771,0.00272253458,0.00255228067,0.00251706177,0.00407002866,0.00384748029,0.00362579175,0.00442022178,0.00363196619,0.0028008502,0.00347600435,0.00489632366,0.00444336049,0.00311535201,0.0028599631,0,0,0,0,0,0,0,0,0,0,0,0,0,0,0,0,0,0,0,0,0,0,0,0
166,1.766000,3,1,1,0,0,3.51287842,3.50982666,3.50799561,3.51043701,3.5055542,3.51623535,3.51043701,3.50402832,3.49273682,3.49151611,3.49334717,3.48144531,3.47930908,3.47442627,3.48632812,3.49121094,0.00513959024,0.00504991645,0.00511053111,0.00515788142,0.00501058158,0.00425300375,0.00489073759,0.00475715846,0.00682318304,0.00584142841,0.00620575016,0.00496262545,0.00574640185,0.00589074381,0.00607480993,0.00548064848,0,0,0,0,0,0,0,0,0,0,0,0,0,0,0,0,0,0,0,0,0,0,0,0
167,1.937000,3,1,1,0,0,3.50891113,3.5043335,3.50219727,3.50616455,3.50067139,3.51043701,3.50585938,3.50006104,3.487854,3.48602295,3.48999023,3.47473145,3.4753418,3.46923828,3.48175049,3.48999023,0.00991943944,0.00930701662,0.00937055517,0.00993915834,0.0102527551,0.0108492244,0.0104922438,0.0100519545,0.0100144986,0.00859230757,0.00944981724,0.00799251441,0.0097993901,0.00886831991,0.0106709553,0.00964940898,0,0,0,0,0,0,0,0,0,0,0,0,0,0,0,0,0,0,0,0,0,0,0,0
168,1.937000,3,1,1,0,0,3.50708008,3.50402832,3.50097656,3.50280762,3.49853516,3.50952148,3.50158691,3.49731445,3.48388672,3.48571777,3.48632812,3.47564697,3.47106934,3.46862793,3.47747803,3.487854,-0.00153606571,-0.00182344869,-0.00268032262,-0.00182911311,-0.00159235881,-0.000625951681,-0.00160735636,-0.00241884287,-0.00241138716,-0.00304843858,-0.00245100725,-0.00192388298,-0.00192665239,-0.00309115998,-0.0016069056,-0.00163164479,0,0,0,0,0,0,0,0,0,0,0,0,0,0,0,0,0,0,0,0,0,0,0,0
169,1.937000,3,1,1,0,0,3.51989746,3.51593018,3.51348877,3.5168457,3.51165771,3.51989746,3.51623535,3.51043701,3.49761963,3.49609375,3.49884033,3.48632812,3.48602295,3.48144531,3.49212646,3.49945068,0.00268689566,0.00224997266,0.00284232246,0.00144276442,0.00244015595,0.00193043007,0.00261549931,0.00200345134,0.00342434412,0.00230714446,0.00211913674,0.00233785412,0.00341274845,0.00327188522,0.0037558442,0.0026975621,0,0,0,0,0,0,0,0,0,0,0,0,0,0,0,0,0,0,0,0,0,0,0,0
170,1.937000,3,1,1,0,0,3.51074219,3.50830078,3.5043335,3.50860596,3.5043335,3.51501465,3.51074219,3.50372314,3.48815918,3.48632812,3.48968506,3.47473145,3.47625732,3.47198486,3.48358154,3.49029541,0.00452193618,0.00471414067,0.00433502533,0.00469463645,0.00555313239,0.00446743565,0.00552945817,0.00500742532,0.0046785227,0.00544160139,0.00470680417,0.00628547836,0.00494495127,0.00451877574,0.00676928321,0.00580144394,0,0,0,0,0,0,0,0,0,0,0,0,0,0,0,0,0,0,0,0,0,0,0,0
171,1.937000,3,1,1,0,0,3.50311279,3.50250244,3.49700928,3.50097656,3.4967041,3.50830078,3.50250244,3.49609375,3.48236084,3.48052979,3.48419189,3.46710205,3.46984863,3.46466064,3.47473145,3.48083496,-0.0025104878,-0.00180027762,-0.0025253233,-0.00250736671,-0.00167595083,-0.00106092321,-0.0013983309,-0.00201840838,-0.00359623902,-0.00257836841,-0.00405112794,-0.0035438647,-0.00245737331,-0.00187535794,-0.00394458277,-0.0035363608,0,0,0,0,0,0,0,0,0,0,0,0,0,0,0,0,0,0,0,0,0,0,0,0
172,1.937000,3,1,1,0,0,3.5067749,3.50311279,3.49853516,3.50372314,3.4979248,3.50952148,3.50280762,3.49761963,3.48236084,3.48236084,3.48510742,3.47106934,3.47045898,3.46343994,3.47625732,3.48480225,-0.00269340258,-0.00341261318,-0.00325253466,-0.00231372286,-0.00332164671,-0.00384735409,-0.00272406335,-0.00353255868,-0.00186593237,-0.00343681313,-0.00163903681,-0.000840679801,-0.00171271898,-0.00248629297,-0.00160407135,-0.00246872846,0,0,0,0,0,0,0,0,0,0,0,0,0,0,0,0,0,0,0,0,0,0,0,0
173,1.937000,3,1,1,0,0,3.5144043,3.51196289,3.50738525,3.51013184,3.5067749,3.5168457,3.51196289,3.50616455,3.49182129,3.49151611,3.4942627,3.48175049,3.47930908,3.47442627,3.48724365,3.4942627,0.00553669827,0.00653807539,0.00498784054,0.00554137351,0.00552507536,0.00509131514,0.00549762463,0.00511295069,0.00593496533,0.00570100266,0.00494441297,0.00521769607,0.00579670258,0.00507641165,0.00569875957,0.00571658742,0,0,0,0,0,0,0,0,0,0,0,0,0,0,0,0,0,0,0,0,0,0,0,0
174,1.937000,3,1,1,0,0,3.5168457,3.5144043,3.51074219,3.5144043,3.50921631,3.52020264,3.51318359,3.50799561,3.49304199,3.49365234,3.49731445,3.48236084,3.47900391,3.47412109,3.487854,3.4954834,0.00372565934,0.00499796588,0.00409331545,0.00388504425,0.00459357956,0.00570028694,0.00472642668,0.00386291998,0.00508206198,0.00452970201,0.00434773182,0.00345475576,0.00418637833,0.00322501641,0.00482045067,0.00394127704,0,0,0,0,0,0,0,0,0,0,0,0,0,0,0,0,0,0,0,0,0,0,0,0
175,1.937000,3,1,1,0,0,3.51104736,3.50830078,3.50524902,3.50982666,3.50463867,3.51501465,3.50952148,3.50280762,3.49090576,3.49121094,3.49304199,3.48083496,3.47869873,3.47320557,3.4854126,3.48999023,0.00133575185,0.000746103702,0.00128183083,0.00151102035,0.000764885219,0.00117739709,0.00255308067,0.000951111782,0.00279471045,0.00259932457,0.00335091003,0.00367774395,0.00399491005,0.00358756701,0.00339151686,0.00220127101,0,0,0,0,0,0,0,0,0,0,0,0,0,0,0,0,0,0,0,0,0,0,0,0
176,1.937000,3,1,1,0,0,3.52264404,3.51928711,3.5168457,3.52050781,3.51593018,3.52600098,3.51989746,3.51318359,3.50036621,3.49975586,3.50311279,3.487854,3.487854,3.48236084,3.49517822,3.50036621,0.0023088099,0.00165579119,0.00242345245,0.00278367684,0.00200070278,0.00223861332,0.00297691161,0.00327929412,0.00425870437,0.00342883822,0.00395356305,0.00294627575,0.00391458021,0.00387053867,0.00310759922,0.00236441661,0,0,0,0,0,0,0,0,0,0,0,0,0,0,0,0,0,0,0,0,0,0,0,0
177,1.937000,3,1,1,0,0,3.5168457,3.5144043,3.51043701,3.5144043,3.50921631,3.51989746,3.51226807,3.50799561,3.49304199,3.4954834,3.49761963,3.48297119,3.47991943,3.47473145,3.48693848,3.49517822,0.00723391958,0.00758235343,0.00746468641,0.0076143085,0.0072962069,0.0070655779,0.00685501844,0.00787361525,0.00516780466,0.00765014859,0.00601259433,0.0067981896,0.00583307771,0.00573537545,0.00556171359,0.00698488811,0,0,0,0,0,0,0,0,0,0,0,0,0,0,0,0,0,0,0,0,0,0,0,0
178,1.937000,3,1,1,0,0,3.50341797,3.50128174,3.49700928,3.49945068,3.49578857,3.5067749,3.50067139,3.49365234,3.48205566,3.47991943,3.48419189,3.47045898,3.46832275,3.46313477,3.47595215,3.48083496,-0.00393008254,-0.0036970973,-0.00405866792,-0.00378384534,-0.0040280656,-0.00270643365,-0.00344729354,-0.00363524165,-0.000724185607,-0.00212677661,-0.000427255349,-0.00248527806,1.01202168e-05,-0.00142396684,0.000155179994,-0.00320758717,0,0,0,0,0,0,0,0,0,0,0,0,0,0,0,0,0,0,0,0,0,0,0,0
179,1.937000,3,1,1,0,0,3.51318359,3.51074219,3.50830078,3.51043701,3.50616455,3.51654053,3.51165771,3.50463867,3.49243164,3.49121094,3.49304199,3.48144531,3.47869873,3.47290039,3.48693848,3.4942627,-0.00364673045,-0.00333061838,-0.00337825855,-0.00403160416,-0.00352564245,-0.00376849878,-0.00320024928,-0.00372056663,-0.00250914413,-0.00266713742,-0.00427886471,-0.00223165541,-0.00211741892,-0.00336378906,-0.00328854984,-0.00275285961,0,0,0,0,0,0,0,0,0,0,0,0,0,0,0,0,0,0,0,0,0,0,0,0
180,1.937000,3,1,1,0,0,3.51593018,3.51287842,3.51013184,3.51196289,3.50830078,3.51898193,3.51196289,3.50616455,3.49090576,3.49395752,3.49395752,3.48236084,3.47991943,3.47351074,3.487854,3.49578857,0.00157446624,0.00180660887,0.000532013306,0.000516431755,0.00202159397,0.00242544804,0.0014351391,0.00126021355,0.000600509986,0.00177976862,0.000482658274,0.00079289719,0.000428238476,0.00025350909,0.00136848574,-0.000339620019,0,0,0,0,0,0,0,0,0,0,0,0,0,0,0,0,0,0,0,0,0,0,0,0
181,1.937000,3,1,1,0,0,3.5144043,3.51196289,3.50891113,3.51196289,3.50799561,3.51867676,3.51226807,3.50524902,3.49182129,3.49060059,3.49365234,3.48175049,3.47900391,3.47320557,3.48754883,3.49121094,0.00588921085,0.00636534486,0.00710582454,0.0069335443,0.00717449468,0.00770527078,0.00765876751,0.00720392819,0.00759254862,0.00686196191,0.00691122795,0.00689615868,0.00708511844,0.00727680558,0.00746212993,0.00520526338,0,0,0,0,0,0,0,0,0,0,0,0,0,0,0,0,0,0,0,0,0,0,0,0
182,1.937000,3,1,1,0,0,3.51196289,3.51013184,3.50616455,3.51043701,3.50524902,3.51593018,3.50982666,3.50311279,3.48876953,3.48571777,3.49029541,3.4765625,3.47595215,3.47290039,3.48388672,3.48907471,-0.00178839732,-0.0012223064,-0.00182928331,-0.000442096789,-0.00107752043,-0.000801873975,-0.000971601403,-0.00146144466,-0.00115118909,-0.00207955763,-0.00122627779,-0.00200911751,-0.0011502842,7.68544851e-05,-0.00135494582,-0.00118669111,0,0,0,0,0,0,0,0,0,0,0,0,0,0,0,0,0,0,0,0,0,0,0,0
183,1.937000,3,1,1,0,0,3.52172852,3.51745605,3.51409912,3.51898193,3.51226807,3.52325439,3.51837158,3.51318359,3.4979248,3.4967041,3.49945068,3.48571777,3.48510742,3.48022461,3.49243164,3.49975586,0.00762344105,0.00750778243,0.00781380292,0.0074041225,0.00784220081,0.00794221461,0.00786829647,0.00725948531,0.00817405246,0.00728645967,0.00648438232,0.00687973341,0.00739755435,0.00656755641,0.00808280986,0.00798916165,0,0,0,0,0,0,0,0,0,0,0,0,0,0,0,0,0,0,0,0,0,0,0,0
184,1.937000,3,1,1,0,0,3.51623535,3.51287842,3.51074219,3.51409912,3.50799561,3.52020264,3.51318359,3.50799561,3.49182129,3.49273682,3.4942627,3.48388672,3.47930908,3.47412109,3.487854,3.49517822,0.00769874733,0.00732288556,0.00785701256,0.00754728727,0.00769938296,0.00863691326,0.00644383067,0.0078120837,0.005768565,0.00792559981,0.00486990251,0.00807501003,0.00598354544,0.00495311199,0.00696589192,0.00678722095,0,0,0,0,0,0,0,0,0,0,0,0,0,0,0,0,0,0,0,0,0,0,0,0
185,2.109000,3,1,1,0,0,3.50341797,3.50128174,3.4967041,3.50158691,3.49639893,3.50646973,3.50189209,3.4942627,3.48327637,3.48236084,3.48449707,3.47137451,3.47045898,3.46282959,3.4777832,3.48266602,-0.00415746681,-0.00469902391,-0.00393633731,-0.00362731563,-0.00413579168,-0.00440398278,-0.00384019408,-0.00378289819,-0.00175483269,-0.00300088734,-0.00137540966,-0.0034348953,-0.00238699513,-0.00292202085,-0.00292592589,-0.00290578743,0,0,0,0,0,0,0,0,0,0,0,0,0,0,0,0,0,0,0,0,0,0,0,0
186,2.109000,3,1,1,0,0,3.51165771,3.50830078,3.50463867,3.50860596,3.50463867,3.51501465,3.50952148,3.50280762,3.48846436,3.48632812,3.48999023,3.47473145,3.47503662,3.47076416,3.48236084,3.48999023,-0.00300494744,-0.00306785549,-0.0029872295,-0.00350642949,-0.00250927173,-0.00360311521,-0.00311981607,-0.00321221887,-0.00232472201,-0.0033228551,-0.00327207102,-0.00419531344,-0.00177319522,-0.00230570999,-0.0023907572,-0.00263680518,0,0,0,0,0,0,0,0,0,0,0,0,0,0,0,0,0,0,0,0,0,0,0,0
187,2.109000,3,1,1,0,0,3.50372314,3.50006104,3.49609375,3.50036621,3.49609375,3.5067749,3.50036621,3.4942627,3.48114014,3.47930908,3.48449707,3.47137451,3.47015381,3.46313477,3.47625732,3.48144531,-0.000137271796,-0.000552648562,3.38644022e-05,-9.84293874e-05,-0.000719762058,-0.00133624335,0.000111255882,-8.60605651e-05,0.00189560233,0.000541277637,0.0034180209,0.00157272234,0.00120246515,0.00230108062,0.00150063843,0.00122734404,0,0,0,0,0,0,0,0,0,0,0,0,0,0,0,0,0,0,0,0,0,0,0,0
188,2.109000,3,1,1,0,0,3.51593018,3.51318359,3.50982666,3.51257324,3.50769043,3.51867676,3.51257324,3.5067749,3.49212646,3.49212646,3.49456787,3.48114014,3.48022461,3.47259521,3.48724365,3.49456787,0.0107494369,0.0101234894,0.0107742026,0.0101941843,0.00977084227,0.0106426878,0.0109019456,0.0105696609,0.00984253734,0.00974042248,0.00952353142,0.00958666764,0.00917047728,0.00903599244,0.00900626555,0.00912064966,0,0,0,0,0,0,0,0,0,0,0,0,0,0,0,0,0,0,0,0,0,0,0,0
189,2.109000,3,1,1,0,0,3.515625,3.51318359,3.51043701,3.51470947,3.50769043,3.51959229,3.51257324,3.50738525,3.49304199,3.49304199,3.49456787,3.48236084,3.47900391,3.47381592,3.48724365,3.4954834,0.000709650398,0.00165788934,0.00147070829,0.00186754297,0.00157533167,0.000982778613,0.0018265954,0.0013366692,0.000591799559,0.000944773667,-0.000593843404,0.00102402142,-0.00154631096,0.000231457292,-0.000702343881,0.000812855316,0,0,0,0,0,0,0,0,0,0,0,0,0,0,0,0,0,0,0,0,0,0,0,0
190,2.109000,3,1,1,0,0,3.51623535,3.51348877,3.51074219,3.51318359,3.50830078,3.51928711,3.51287842,3.50799561,3.49304199,3.49517822,3.49822998,3.48602295,3.48083496,3.4765625,3.49090576,3.49700928,0.00124438968,0.00226306077,0.00189811701,0.0018477384,0.00177746126,0.00156789355,0.00169271242,0.00160575565,0.00386958546,0.00195282698,0.0039267512,0.00334724784,0.00248910859,0.00271447445,0.00369991502,0.00300863129,0,0,0,0,0,0,0,0,0,0,0,0,0,0,0,0,0,0,0,0,0,0,0,0
191,2.109000,3,1,1,0,0,3.50067139,3.49639893,3.4942627,3.49761963,3.49151611,3.50250244,3.49761963,3.49273682,3.47595215,3.47564697,3.47930908,3.4664917,3.46405029,3.46008301,3.46923828,3.47930908,-0.00781723298,-0.00790872518,-0.00721141556,-0.00890149921,-0.00813220162,-0.00738488417,-0.0086265346,-0.0069747814,-0.0081702536,-0.00803980976,-0.00867376104,-0.00781373866,-0.00843153242,-0.00679250527,-0.00884280447,-0.00671499642,0,0,0,0,0,0,0,0,0,0,0,0,0,0,0,0,0,0,0,0,0,0,0,0
192,2.109000,3,1,1,0,0,3.50402832,3.50189209,3.49700928,3.49945068,3.49639893,3.50646973,3.50128174,3.49487305,3.48083496,3.47808838,3.48419189,3.47015381,3.46679688,3.46343994,3.47595215,3.47961426,-0.0011093053,0.000276064326,-0.00129203312,-0.00163922063,-0.000351766997,4.27708146e-05,-0.000959758938,-0.00123168924,-0.00141598121,-0.00189860095,-0.00110742613,-0.00126595539,-0.00186450034,-0.00141256605,-0.000652258634,-0.00197641086,0,0,0,0,0,0,0,0,0,0,0,0,0,0,0,0,0,0,0,0,0,0,0,0
193,2.109000,3,1,1,0,0,3.51806641,3.51470947,3.51074219,3.51501465,3.50952148,3.52050781,3.51318359,3.50860596,3.49395752,3.49517822,3.4942627,3.48480225,3.48083496,3.47442627,3.487854,3.49578857,0.00247171638,0.00235586264,0.00193216733,0.00214856048,0.00197835173,0.00336347753,0.00213287491,0.00249265414,-0.000226099844,0.00151447649,-0.00219425512,0.000863866357,-0.0013192842,-0.000454998342,-0.000981097226,0.00167342101,0,0,0,0,0,0,0,0,0,0,0,0,0,0,0,0,0,0,0,0,0,0,0,0
194,2.109000,3,1,1,0,0,3.50189209,3.49884033,3.4954834,3.49884033,3.49487305,3.50585938,3.50036621,3.4942627,3.48114014,3.47930908,3.48388672,3.47045898,3.46862793,3.46435547,3.47564697,3.48144531,-0.00166162918,-0.00142530585,-0.00109883794,-0.00148077274,-0.00156162027,-0.00227868883,-0.00154118007,-0.000925265776,0.000319365878,-0.000187192229,0.00121574732,0.00104501017,0.000687807216,0.00203044084,0.000161498552,0.000701426179,0,0,0,0,0,0,0,0,0,0,0,0,0,0,0,0,0,0,0,0,0,0,0,0
195,2.109000,3,1,1,0,0,3.51593018,3.51226807,3.50799561,3.51196289,3.50708008,3.51898193,3.51165771,3.50585938,3.49151611,3.49151611,3.4942627,3.48052979,3.47961426,3.47381592,3.48693848,3.49060059,0.00377194351,0.00384345977,0.00348655181,0.00411293516,0.00362015003,0.00488616945,0.00362591771,0.00431718305,0.00475496426,0.00330212712,0.00493078306,0.00435538637,0.00448487047,0.0049368958,0.00525102485,0.0029932633,0,0,0,0,0,0,0,0,0,0,0,0,0,0,0,0,0,0,0,0,0,0,0,0
196,2.109000,3,1,1,0,0,3.51318359,3.51074219,3.5055542,3.51074219,3.50585938,3.51623535,3.51074219,3.50402832,3.49243164,3.49121094,3.49456787,3.48175049,3.47900391,3.47442627,3.4866333,3.49121094,0.00681329938,0.00664846692,0.00673724012,0.00644030795,0.0072918795,0.00640367158,0.00691177091,0.00591715565,0.0072082025,0.00762550626,0.00714309234,0.00801148452,0.00555357477,0.00672367634,0.00805246737,0.00794978812,0,0,0,0,0,0,0,0,0,0,0,0,0,0,0,0,0,0,0,0,0,0,0,0
197,2.109000,3,1,1,0,0,3.52142334,3.51654053,3.5144043,3.51898193,3.51165771,3.52386475,3.51837158,3.51257324,3.49853516,3.49578857,3.50250244,3.48510742,3.48632812,3.48205566,3.49304199,3.50067139,0.00386962714,0.00353586278,0.00335861137,0.00356672239,0.00371272117,0.00362497848,0.00269662216,0.00326505676,0.00233133882,0.00218041707,0.00202450133,0.00152611989,0.00190531043,0.00213612942,0.00310049206,0.00287911412,0,0,0,0,0,0,0,0,0,0,0,0,0,0,0,0,0,0,0,0,0,0,0,0
198,2.109000,3,1,1,0,0,3.5067749,3.50402832,3.50128174,3.50402832,3.49945068,3.50982666,3.50341797,3.49853516,3.48724365,3.48571777,3.48876953,3.47564697,3.47381592,3.46923828,3.47808838,3.48846436,0.00444055162,0.00422300352,0.00535676908,0.00502069853,0.0049473322,0.00488503044,0.00534361694,0.00510769337,0.00481969211,0.00581096858,0.00445874082,0.00516359601,0.00493787322,0.00525130099,0.00347222085,0.00536064198,0,0,0,0,0,0,0,0,0,0,0,0,0,0,0,0,0,0,0,0,0,0,0,0
199,2.109000,3,1,1,0,0,3.51654053,3.51379395,3.50891113,3.51409912,3.50738525,3.51928711,3.51287842,3.50769043,3.49212646,3.49273682,3.49456787,3.48175049,3.47869873,3.47381592,3.48754883,3.49487305,0.00919222273,0.00944343768,0.00885441061,0.00969107542,0.00940021034,0.00920040626,0.00949534681,0.00963131338,0.00895320065,0.00978678558,0.00975444634,0.0094931107,0.0070081451,0.00647472311,0.00727106817,0.00980057288,0,0,0,0,0,0,0,0,0,0,0,0,0,0,0,0,0,0,0,0,0,0,0,0
200,2.109000,3,1,1,0,0,3.51470947,3.51104736,3.50830078,3.51287842,3.50646973,3.51745605,3.51074219,3.5055542,3.49090576,3.49151611,3.49304199,3.48083496,3.47991943,3.47381592,3.4866333,3.49395752,0.00498834159,0.00401163939,0.00509692822,0.00496476702,0.00374113,0.00498224329,0.00418608543,0.00441837497,0.00382878981,0.00398918381,0.0046004355,0.00382141815,0.00498984521,0.00450599892,0.00489741843,0.00443592342,0,0,0,0,0,0,0,0,0,0,0,0,0,0,0,0,0,0,0,0,0,0,0,0
201,2.109000,3,1,1,0,0,3.51104736,3.5055542,3.50494385,3.50830078,3.50128174,3.51196289,3.50799561,3.50128174,3.48968506,3.48968506,3.49334717,3.47686768,3.47808838,3.47381592,3.48388672,3.49090576,0.00239100377,0.00207101484,0.00228136871,0.00204643374,0.00249001617,0.00252129859,0.00204254524,0.00258800876,0.0019263227,0.00139770249,0.00100573862,0.00137492898,0.00131642376,0.00175989082,0.00243847352,0.0011130994,0,0,0,0,0,0,0,0,0,0,0,0,0,0,0,0,0,0,0,0,0,0,0,0
202,2.281000,3,1,1,0,0,3.50799561,3.50494385,3.50158691,3.5055542,3.49975586,3.51074219,3.5055542,3.49975586,3.48724365,3.48510742,3.48937988,3.47686768,3.4753418,3.46954346,3.48083496,3.48907471,0.000969524612,0.00152956147,0.000699351425,0.00182648189,0.00200281199,0.00246626814,0.00220210012,0.00145569444,0.00342597719,0.000764955417,0.0041927807,0.00145989761,0.00398679543,0.00365982228,0.00312171341,0.00253779488,0,0,0,0,0,0,0,0,0,0,0,0,0,0,0,0,0,0,0,0,0,0,0,0
203,2.281000,3,1,1,0,0,3.51470947,3.51135254,3.50708008,3.51135254,3.50646973,3.51654053,3.51074219,3.50494385,3.49212646,3.49121094,3.49487305,3.48114014,3.47900391,3.47290039,3.4866333,3.49456787,0.00199023588,0.00264364155,0.00145253167,0.00178911583,0.00248442334,0.00257442938,0.00177047867,0.00179808273,0.000847857562,0.00183522201,0.000724273385,0.000776662724,0.00110017427,-0.000494427106,0.00210323627,0.0017413313,0,0,0,0,0,0,0,0,0,0,0,0,0,0,0,0,0,0,0,0,0,0,0,0
204,2.281000,3,1,1,0,0,3.51989746,3.51593018,3.51287842,3.5168457,3.51013184,3.52050781,3.5168457,3.51074219,3.49304199,3.49456787,3.49578857,3.48571777,3.48144531,3.47686768,3.487854,3.49609375,0.00177821959,0.00107460062,0.000739481417,0.00114925066,0.000484029326,0.000264272821,0.000937901379,0.00108538184,-0.0003581848,0.000407837535,-0.000984654645,2.43211398e-05,-0.000370840629,0.000798228662,-0.000389123423,-0.000211638122,0,0,0,0,0,0,0,0,0,0,0,0,0,0,0,0,0,0,0,0,0,0,0,0
205,2.281000,3,1,1,0,0,3.50372314,3.50158691,3.4979248,3.50006104,3.49609375,3.50646973,3.50128174,3.49365234,3.48236084,3.48236084,3.48358154,3.47229004,3.46984863,3.46405029,3.47717285,3.48571777,0.00370039279,0.00369096803,0.00434568617,0.00441967743,0.0041594319,0.00291835051,0.00388756208,0.00392882945,0.00371323805,0.00453523314,0.00473670196,0.00477492949,0.00427124277,0.00400987361,0.00437011104,0.00610803347,0,0,0,0,0,0,0,0,0,0,0,0,0,0,0,0,0,0,0,0,0,0,0,0
206,2.281000,3,1,1,0,0,3.51196289,3.51074219,3.5055542,3.50952148,3.50402832,3.51623535,3.51135254,3.50341797,3.49182129,3.49121094,3.49456787,3.48114014,3.47961426,3.47259521,3.48724365,3.49395752,0.00837874971,0.00856650528,0.00866277143,0.00852525886,0.00803361833,0.00899366383,0.00918101799,0.00874518882,0.00990454108,0.0094528487,0.0097752763,0.0101099508,0.0102693634,0.00868322141,0.0104048792,0.0088312244,0,0,0,0,0,0,0,0,0,0,0,0,0,0,0,0,0,0,0,0,0,0,0,0
207,2.281000,3,1,1,0,0,3.5067749,3.50341797,3.50128174,3.5043335,3.49884033,3.50952148,3.50311279,3.49822998,3.48724365,3.48571777,3.48876953,3.4753418,3.47076416,3.46893311,3.4777832,3.48754883,0.00222855574,0.00182139932,0.00161024719,0.000988463522,0.00188082946,0.00192511384,0.00149039004,0.00180226739,0.00182630774,0.00218853517,0.000255523133,0.00276849,-0.000870860589,3.06173461e-05,0.000189380837,0.00233901525,0,0,0,0,0,0,0,0,0,0,0,0,0,0,0,0,0,0,0,0,0,0,0,0
208,2.281000,3,1,1,0,0,3.51135254,3.50891113,3.50524902,3.50860596,3.50463867,3.51501465,3.50982666,3.50372314,3.49182129,3.49060059,3.49304199,3.48022461,3.47900391,3.47381592,3.48602295,3.49090576,-0.000952550676,-0.000335370074,-0.000687233754,-0.0015327388,-0.00073054689,-0.000550419616,0.000313361816,-0.000622869178,0.000891302945,0.000109243352,-0.000781250768,-0.000367045082,-0.000546893221,0.000790425809,-0.000708205276,0.000663508254,0,0,0,0,0,0,0,0,0,0,0,0,0,0,0,0,0,0,0,0,0,0,0,0
209,2.281000,3,1,1,0,0,3.51593018,3.51287842,3.51013184,3.51379395,3.50860596,3.51837158,3.51196289,3.50769043,3.49212646,3.49395752,3.49456787,3.48419189,3.47991943,3.47473145,3.4866333,3.4954834,0.00331679266,0.00350452634,0.00386023568,0.00413228571,0.00355172111,0.00417688256,0.00277690776,0.00406666007,0.00501660025,0.00471407641,0.00496649463,0.00423687277,0.00402648142,0.00480998773,0.00466915872,0.00531377411,0,0,0,0,0,0,0,0,0,0,0,0,0,0,0,0,0,0,0,0,0,0,0,0
210,2.281000,3,1,1,0,0,3.51135254,3.50738525,3.50494385,3.50891113,3.50158691,3.51409912,3.50830078,3.50250244,3.48999023,3.4866333,3.49121094,3.47991943,3.47839355,3.47290039,3.48571777,3.49060059,0.00474977819,0.00495009031,0.00496776681,0.00594984367,0.00491406489,0.00510696834,0.00549078127,0.00568464352,0.00722765457,0.00381563744,0.00559986476,0.00528113777,0.00645808037,0.00676843664,0.00622197194,0.00582504505,0,0,0,0,0,0,0,0,0,0,0,0,0,0,0,0,0,0,0,0,0,0,0,0
211,2.281000,3,1,1,0,0,3.52050781,3.51837158,3.51501465,3.51989746,3.51470947,3.5244751,3.51928711,3.51379395,3.50036621,3.49639893,3.50219727,3.4866333,3.48724365,3.48083496,3.49334717,3.50097656,0.00649943389,0.00686121406,0.00612971419,0.00636220118,0.00735047553,0.00752284424,0.00640037796,0.00670373579,0.00562892063,0.00680097565,0.00595477223,0.00429645414,0.00603148155,0.00598298851,0.00632540602,0.00487510813,0,0,0,0,0,0,0,0,0,0,0,0,0,0,0,0,0,0,0,0,0,0,0,0
212,2.281000,3,1,1,0,0,3.5043335,3.50250244,3.49853516,3.50128174,3.4967041,3.50738525,3.50097656,3.49517822,3.48236084,3.47930908,3.48358154,3.47045898,3.47015381,3.46435547,3.47625732,3.47991943,0.00580663234,0.00629453594,0.00542229973,0.00631648628,0.00516680349,0.00638057198,0.00531373965,0.00569001632,0.00435595354,0.00499089016,0.00504704332,0.00554619031,0.00449776091,0.00504985731,0.00438624434,0.00425215019,0,0,0,0,0,0,0,0,0,0,0,0,0,0,0,0,0,0,0,0,0,0,0,0
213,2.281000,3,1,1,0,0,3.51074219,3.50738525,3.50372314,3.50646973,3.50128174,3.51165771,3.5067749,3.50128174,3.48449707,3.48602295,3.48846436,3.47503662,3.47381592,3.46923828,3.47900391,3.48754883,0.00305986591,0.00282626739,0.00321898027,0.00274409819,0.00282973703,0.00261421711,0.00251802639,0.00291103823,0.00161557482,0.00306095555,0.00163872261,0.00284620514,0.00212430465,0.000632374664,0.000970198424,0.00238590245,0,0,0,0,0,0,0,0,0,0,0,0,0,0,0,0,0,0,0,0,0,0,0,0
214,2.281000,3,1,1,0,0,3.51409912,3.51104736,3.50738525,3.51074219,3.50585938,3.5168457,3.51013184,3.5043335,3.49151611,3.49151611,3.49304199,3.48175049,3.47961426,3.47320557,3.48602295,3.49395752,-0.00323784444,-0.00365535542,-0.00344352843,-0.00381176523,-0.00331670186,-0.00353266136,-0.00423842343,-0.00323343254,-0.00366080948,-0.00346022868,-0.00488086883,-0.00348207727,-0.00357381091,-0.00288881804,-0.00350283016,-0.00308107678,0,0,0,0,0,0,0,0,0,0,0,0,0,0,0,0,0,0,0,0,0,0,0,0
215,2.281000,3,1,1,0,0,3.51318359,3.51104736,3.50708008,3.51043701,3.50616455,3.5168457,3.51104736,3.50402832,3.49182129,3.49029541,3.49273682,3.4765625,3.47808838,3.47320557,3.48602295,3.49121094,0.00783660822,0.00796786416,0.00744617777,0.00793815125,0.00845367555,0.00790958107,0.00766496174,0.00713422801,0.00630948227,0.00684211869,0.00679240655,0.00605122931,0.00585722644,0.0052019069,0.0070478688,0.00673108548,0,0,0,0,0,0,0,0,0,0,0,0,0,0,0,0,0,0,0,0,0,0,0,0
216,2.281000,3,1,1,0,0,3.50982666,3.50738525,3.50372314,3.50921631,3.50189209,3.51409912,3.50952148,3.50250244,3.4866333,3.4854126,3.48907471,3.47595215,3.47503662,3.47106934,3.48052979,3.48907471,0.00719533069,0.00660021277,0.00655382127,0.0063344473,0.00675271964,0.00719218748,0.00669550244,0.00677290279,0.00465930626,0.00471814256,0.0041733291,0.00475975033,0.00512938295,0.00482549332,0.00502305618,0.0054055769,0,0,0,0,0,0,0,0,0,0,0,0,0,0,0,0,0,0,0,0,0,0,0,0
217,2.281000,3,1,1,0,0,3.51623535,3.51257324,3.50982666,3.51379395,3.50769043,3.51898193,3.51196289,3.50708008,3.49243164,3.49243164,3.4942627,3.48419189,3.48083496,3.47290039,3.487854,3.49517822,0.00131192349,0.00153819262,0.00158000202,0.00167851092,0.00116596557,0.000370825757,0.00102788652,0.00170986261,0.00212874962,0.00113721471,0.00116186251,0.00189459871,0.000278908294,0.00127120095,0.000808323268,0.00105514401,0,0,0,0,0,0,0,0,0,0,0,0,0,0,0,0,0,0,0,0,0,0,0,0
218,2.281000,3,1,1,0,0,3.51074219,3.50646973,3.50402832,3.50769043,3.50280762,3.5144043,3.50860596,3.50250244,3.48937988,3.48571777,3.49304199,3.47625732,3.4765625,3.47320557,3.48327637,3.48968506,0.00186320685,0.00162711157,0.00285858917,0.00249133329,0.00260747806,0.0020112549,0.00210138713,0.00257841963,0.00232110079,0.00302479137,0.00404151622,0.00321150059,0.00227228343,0.00195126422,0.00217599957,0.00253108237,0,0,0,0,0,0,0,0,0,0,0,0,0,0,0,0,0,0,0,0,0,0,0,0
219,2.437000,3,1,1,0,0,3.51135254,3.51043701,3.5055542,3.50891113,3.50402832,3.51623535,3.51043701,3.50250244,3.48999023,3.48968506,3.49273682,3.47930908,3.4765625,3.47198486,3.48419189,3.48968506,0.00728838984,0.00755844777,0.00780996215,0.00810406264,0.00719547691,0.00745032635,0.0082003139,0.00748677785,0.00610952545,0.00738336006,0.00734737515,0.00676384382,0.00656217616,0.00699166721,0.00552474055,0.00611862214,0,0,0,0,0,0,0,0,0,0,0,0,0,0,0,0,0,0,0,0,0,0,0,0
220,2.437000,3,1,1,0,0,3.50952148,3.50646973,3.50311279,3.5067749,3.50128174,3.51104736,3.50616455,3.50006104,3.48815918,3.48693848,3.49090576,3.47595215,3.47595215,3.47106934,3.48266602,3.48968506,0.00736185815,0.00703788828,0.00754575245,0.00741731096,0.00724438718,0.00653951382,0.00726850703,0.00777356746,0.00868128426,0.00748760533,0.00932543818,0.00783560425,0.00950573385,0.00777888903,0.00905012432,0.00829594489,0,0,0,0,0,0,0,0,0,0,0,0,0,0,0,0,0,0,0,0,0,0,0,0
221,2.437000,3,1,1,0,0,3.51043701,3.50769043,3.5043335,3.50769043,3.50189209,3.51104736,3.50738525,3.50250244,3.49090576,3.48693848,3.49365234,3.47625732,3.47686768,3.47229004,3.48327637,3.48968506,0.00417745439,0.00431589736,0.00383084849,0.00477923639,0.00374498684,0.00342554855,0.0040178257,0.00421158317,0.00523920637,0.00448228233,0.00479461998,0.00496954378,0.00424772222,0.00436263159,0.00354411569,0.00485931803,0,0,0,0,0,0,0,0,0,0,0,0,0,0,0,0,0,0,0,0,0,0,0,0
222,2.437000,3,1,1,0,0,3.5043335,3.50219727,3.4979248,3.50097656,3.4967041,3.50708008,3.50189209,3.4954834,3.48236084,3.48083496,3.48358154,3.47076416,3.46923828,3.46343994,3.47686768,3.48144531,-0.00678987848,-0.00651201745,-0.00675329566,-0.00675277691,-0.00662359875,-0.0067645302,-0.00649577007,-0.00661104033,-0.00592108117,-0.00504397741,-0.00571804401,-0.00635369727,-0.0061482396,-0.00510452501,-0.00587309105,-0.00679434603,0,0,0,0,0,0,0,0,0,0,0,0,0,0,0,0,0,0,0,0,0,0,0,0
223,2.453000,3,1,1,0,0,3.50860596,3.50524902,3.50250244,3.50616455,3.50158691,3.51043701,3.50616455,3.50097656,3.487854,3.48693848,3.49029541,3.47473145,3.4753418,3.47045898,3.48266602,3.48999023,0.0103341676,0.0105458871,0.0105646811,0.0104748588,0.0111856712,0.0106722536,0.0111610452,0.0100574,0.011635269,0.00989416149,0.0117019797,0.0101372348,0.0119309407,0.0116099892,0.0120810987,0.0105507877,0,0,0,0,0,0,0,0,0,0,0,0,0,0,0,0,0,0,0,0,0,0,0,0
224,2.453000,3,1,1,0,0,3.50769043,3.50402832,3.50219727,3.50494385,3.50006104,3.50982666,3.50372314,3.49975586,3.48815918,3.48571777,3.48968506,3.47595215,3.47503662,3.46923828,3.48205566,3.48937988,0.00390291587,0.00281862076,0.00390795665,0.00460255612,0.00326885609,0.00348483049,0.00367573579,0.00373381004,0.00482059596,0.00311843073,0.00436380319,0.00396658573,0.00406170962,0.00486001978,0.00429717777,0.00361146312,0,0,0,0,0,0,0,0,0,0,0,0,0,0,0,0,0,0,0,0,0,0,0,0
225,2.453000,3,1,1,0,0,3.51989746,3.51531982,3.51226807,3.51715088,3.51165771,3.52233887,3.51654053,3.51013184,3.49731445,3.49456787,3.49884033,3.48571777,3.48052979,3.47991943,3.49121094,3.49914551,0.00204866915,0.00230662571,0.00217949087,0.00197399384,0.00239109737,0.0021662307,0.00133895408,0.00102751015,0.00115924468,0.00289022597,0.00125639327,0.00352940522,0.000640458311,0.00103448844,0.00157169974,0.00251816842,0,0,0,0,0,0,0,0,0,0,0,0,0,0,0,0,0,0,0,0,0,0,0,0
226,2.453000,3,1,1,0,0,3.50280762,3.50128174,3.49822998,3.50036621,3.4967041,3.50708008,3.50158691,3.4942627,3.48266602,3.48114014,3.48388672,3.47137451,3.46984863,3.46343994,3.47747803,3.48266602,-0.00563211646,-0.00483669108,-0.00493579637,-0.00533292815,-0.00492295995,-0.004601717,-0.00491271168,-0.00562028121,-0.0038928329,-0.00438370323,-0.00367310736,-0.00387975667,-0.00358180678,-0.00414295681,-0.00312885828,-0.00303193415,0,0,0,0,0,0,0,0,0,0,0,0,0,0,0,0,0,0,0,0,0,0,0,0
227,2.453000,3,1,1,0,0,3.51654053,3.51379395,3.51013184,3.51409912,3.50860596,3.51837158,3.51287842,3.50738525,3.49212646,3.49243164,3.49731445,3.48449707,3.47991943,3.47473145,3.48754883,3.49517822,0.00907276571,0.00859920867,0.00897884089,0.00931337941,0.00857014768,0.00765900407,0.00885496102,0.00851118937,0.00834783446,0.00725749228,0.00922850985,0.00767268566,0.00764675252,0.00819884986,0.00848948583,0.00854612328,0,0,0,0,0,0,0,0,0,0,0,0,0,0,0,0,0,0,0,0,0,0,0,0
228,2.453000,3,1,1,0,0,3.51531982,3.51257324,3.50952148,3.51379395,3.50769043,3.51745605,3.51074219,3.50494385,3.49273682,3.49243164,3.49304199,3.48419189,3.48022461,3.47381592,3.4866333,3.4954834,-0.00108013127,-0.00091255724,-0.000399013574,2.82545807e-05,-7.42311531e-05,-0.00145935733,-0.000781828014,-0.000856878993,0.000236427528,-0.000508544268,0.000112029782,-0.000381024875,0.00137164351,0.00132657052,0.000876714999,0.000402155449,0,0,0,0,0,0,0,0,0,0,0,0,0,0,0,0,0,0,0,0,0,0,0,0
229,2.453000,3,1,1,0,0,3.50982666,3.50769043,3.50341797,3.50708008,3.50189209,3.51104736,3.5067749,3.50067139,3.48602295,3.48632812,3.487854,3.47503662,3.47106934,3.46862793,3.47839355,3.4866333,0.0036403141,0.00329644908,0.00357253058,0.00326616177,0.00313999737,0.00334672257,0.00315471552,0.00326935691,0.00271657156,0.00374645554,0.00421612617,0.00424116664,0.00168194785,0.00320845703,0.00277487817,0.00340881431,0,0,0,0,0,0,0,0,0,0,0,0,0,0,0,0,0,0,0,0,0,0,0,0
230,2.453000,3,1,1,0,0,3.50494385,3.50219727,3.49884033,3.50128174,3.4967041,3.50708008,3.50158691,3.49609375,3.48236084,3.48266602,3.48419189,3.47229004,3.47106934,3.46466064,3.47747803,3.48510742,0.00318340305,0.00399662321,0.00387739227,0.00358751952,0.00399313681,0.00407229923,0.00368523761,0.00355585921,0.0036334293,0.00243878877,0.00305608823,0.00225501345,0.00326954341,0.00405086251,0.00430697622,0.00315009616,0,0,0,0,0,0,0,0,0,0,0,0,0,0,0,0,0,0,0,0,0,0,0,0
231,2.453000,3,1,1,0,0,3.50952148,3.5067749,3.50219727,3.50646973,3.50189209,3.51135254,3.5067749,3.50128174,3.48571777,3.48449707,3.48510742,3.47442627,3.47076416,3.46893311,3.4777832,3.48602295,0.00206197123,0.00273127481,0.00160536985,0.00171754556,0.00203080056,0.00187661208,0.00163395528,0.00166410685,0.000779301277,0.000910226256,-0.00128591061,-5.57864551e-05,-0.000933074276,8.86834459e-05,-0.00128101232,0.000438610441,0,0,0,0,0,0,0,0,0,0,0,0,0,0,0,0,0,0,0,0,0,0,0,0
232,2.453000,3,1,1,0,0,3.51806641,3.51531982,3.51196289,3.51593018,3.51013184,3.52020264,3.515625,3.50982666,3.4967041,3.49456787,3.49914551,3.48449707,3.48480225,3.47900391,3.49182129,3.49884033,-0.0005462587,-0.000218773261,-0.000269221258,-0.000230233651,-0.000467799604,-0.000893921242,-3.19231767e-05,-0.000214577187,0.000989878085,0.000926795066,-0.00142433401,0.000700110802,-0.000508177443,6.00822968e-05,-0.000628415728,0.00149538554,0,0,0,0,0,0,0,0,0,0,0,0,0,0,0,0,0,0,0,0,0,0,0,0
233,2.453000,3,1,1,0,0,3.50128174,3.49853516,3.4954834,3.49945068,3.49273682,3.50524902,3.50006104,3.49243164,3.48114014,3.47900391,3.48388672,3.47045898,3.46954346,3.46343994,3.47595215,3.48388672,-0.00439880555,-0.00479889242,-0.00397213269,-0.00368054304,-0.00393307162,-0.00334880059,-0.00328862504,-0.00439432263,-0.00121070875,-0.00304146321,-0.00120478997,-0.00158488832,-0.00121152529,-0.00193640625,-0.00105016865,-0.00191377685,0,0,0,0,0,0,0,0,0,0,0,0,0,0,0,0,0,0,0,0,0,0,0,0
234,2.453000,3,1,1,0,0,3.50372314,3.50036621,3.49700928,3.49975586,3.49639893,3.50708008,3.50067139,3.4942627,3.48236084,3.48266602,3.48480225,3.47442627,3.47045898,3.46343994,3.4765625,3.48510742,-0.00458627567,-0.00403855275,-0.00508241355,-0.00531406887,-0.00338799646,-0.00383206527,-0.00371040218,-0.00506915618,-0.00473664794,-0.00522490777,-0.0039877193,-0.00501271989,-0.00460098498,-0.00423884252,-0.00416261377,-0.00521626417,0,0,0,0,0,0,0,0,0,0,0,0,0,0,0,0,0,0,0,0,0,0,0,0
235,2.453000,3,1,1,0,0,3.51715088,3.51287842,3.51043701,3.51318359,3.50860596,3.51806641,3.51287842,3.50738525,3.49212646,3.49395752,3.49487305,3.48297119,3.47991943,3.47442627,3.48632812,3.4954834,0.00807732809,0.00709047122,0.00773106748,0.00798544288,0.00756669044,0.00693903258,0.00803475361,0.00824220013,0.00647087721,0.00598641438,0.0057947957,0.00700039743,0.00664687483,0.00687570916,0.00695016375,0.00767811947,0,0,0,0,0,0,0,0,0,0,0,0,0,0,0,0,0,0,0,0,0,0,0,0
236,2.609000,3,1,1,0,0,3.50585938,3.50402832,3.49945068,3.50189209,3.49761963,3.50952148,3.50250244,3.49761963,3.48266602,3.48175049,3.48297119,3.47167969,3.47015381,3.46343994,3.4765625,3.48449707,-0.00366528798,-0.00310387276,-0.00416394277,-0.00466301059,-0.00407945365,-0.00384691032,-0.00505632255,-0.00399939576,-0.00555679714,-0.00423041545,-0.00591114443,-0.00437501678,-0.00460313912,-0.00604648795,-0.00523696654,-0.00336334296,0,0,0,0,0,0,0,0,0,0,0,0,0,0,0,0,0,0,0,0,0,0,0,0
237,2.609000,3,1,1,0,0,3.50372314,3.50219727,3.49731445,3.50097656,3.49700928,3.50799561,3.50128174,3.49609375,3.48236084,3.48266602,3.48510742,3.47259521,3.47015381,3.46435547,3.47717285,3.48632812,0.00777260726,0.00842639897,0.00751252845,0.00723471679,0.00897265226,0.00869372394,0.00818848982,0.00757770147,0.00808866229,0.00834306516,0.00800209306,0.00796687324,0.00915602129,0.00726633519,0.00862612016,0.00636001071,0,0,0,0,0,0,0,0,0,0,0,0,0,0,0,0,0,0,0,0,0,0,0,0
238,2.609000,3,1,1,0,0,3.50189209,3.49884033,3.4954834,3.50036621,3.49456787,3.5055542,3.50006104,3.49334717,3.48236084,3.47808838,3.48388672,3.4677124,3.46893311,3.46374512,3.47473145,3.48052979,-0.00336712552,-0.00272633228,-0.00410748739,-0.00293630478,-0.00341967191,-0.00235585542,-0.00337197818,-0.00334371184,-0.00491705956,-0.00556774996,-0.00526808994,-0.00615503034,-0.00509826047,-0.00405068882,-0.00523142423,-0.00489831064,0,0,0,0,0,0,0,0,0,0,0,0,0,0,0,0,0,0,0,0,0,0,0,0
239,2.609000,3,1,1,0,0,3.51379395,3.51074219,3.50646973,3.51043701,3.50341797,3.515625,3.50982666,3.50250244,3.49060059,3.48968506,3.49304199,3.47686768,3.4765625,3.47259521,3.48388672,3.48968506,0.0010407865,0.0012895026,0.000671423564,0.00038528617,0.000281097076,0.000358803256,0.000412785041,4.66010533e-05,-0.0020398933,0.000212328392,-0.00220620749,-0.00160617405,-0.00247312896,-0.000304232439,-0.00218524272,-0.00129399938,0,0,0,0,0,0,0,0,0,0,0,0,0,0,0,0,0,0,0,0,0,0,0,0
240,2.609000,3,1,1,0,0,3.51165771,3.50769043,3.5055542,3.50891113,3.50280762,3.51409912,3.50830078,3.50311279,3.49029541,3.48999023,3.49395752,3.48052979,3.47839355,3.47229004,3.48602295,3.49029541,0.0014846765,0.000753828208,0.00160661782,0.00131263386,0.00133691786,0.000832191843,-1.82641961e-05,0.00132977776,0.000592165976,0.00162287359,0.00110608363,0.00257230923,0.00167386327,0.000191538333,0.000724858488,0.00172362919,0,0,0,0,0,0,0,0,0,0,0,0,0,0,0,0,0,0,0,0,0,0,0,0
241,2.609000,3,1,1,0,0,3.50494385,3.50189209,3.49914551,3.50189209,3.49731445,3.50830078,3.50189209,3.49639893,3.48236084,3.4854126,3.48480225,3.47473145,3.46984863,3.46496582,3.4777832,3.48602295,-0.00161196478,-0.00202438142,-0.00185171969,-0.00135645038,-0.0015107051,-0.000922060572,-0.000617398007,-0.00169564877,-0.000332016265,-0.000601094216,0.000393644674,-0.000430870685,0.00019939302,-1.33097637e-05,4.48020874e-05,-0.000287462724,0,0,0,0,0,0,0,0,0,0,0,0,0,0,0,0,0,0,0,0,0,0,0,0
242,2.609000,3,1,1,0,0,3.50524902,3.50311279,3.49884033,3.50189209,3.4967041,3.50830078,3.50250244,3.4967041,3.48083496,3.47839355,3.48297119,3.46801758,3.46862793,3.46343994,3.47595215,3.48358154,-0.00420891354,-0.00440871622,-0.00459183194,-0.0043547675,-0.00497521227,-0.00428211596,-0.004722137,-0.00411758432,-0.0021101404,-0.00339398184,-0.00315746712,-0.00343505526,-0.00232743192,-0.00370188709,-0.00278751296,-0.00389777101,0,0,0,0,0,0,0,0,0,0,0,0,0,0,0,0,0,0,0,0,0,0,0,0
243,2.609000,3,1,1,0,0,3.51287842,3.51013184,3.5067749,3.51043701,3.50616455,3.5168457,3.51165771,3.50341797,3.49151611,3.49182129,3.49456787,3.48144531,3.48022461,3.47320557,3.48693848,3.4942627,0.00519068446,0.00555707561,0.00556123769,0.00507066678,0.00618034368,0.00573982578,0.00525020435,0.00524661969,0.00568003114,0.00646803761,0.00724545866,0.00740080001,0.00578889577,0.00564913219,0.00694686687,0.00691341609,0,0,0,0,0,0,0,0,0,0,0,0,0,0,0,0,0,0,0,0,0,0,0,0
244,2.609000,3,1,1,0,0,3.50219727,3.49822998,3.49517822,3.49914551,3.49243164,3.5055542,3.49945068,3.49365234,3.48083496,3.47747803,3.48297119,3.47015381,3.46740723,3.46374512,3.47412109,3.48083496,0.00419252366,0.00444634538,0.00473306049,0.00476250099,0.00375610776,0.00413828809,0.00477819238,0.00496850582,0.00629304769,0.00475194911,0.00581899937,0.00480932975,0.00639970694,0.00575266406,0.00554491859,0.00525143184,0,0,0,0,0,0,0,0,0,0,0,0,0,0,0,0,0,0,0,0,0,0,0,0
245,2.609000,3,1,1,0,0,3.50708008,3.50341797,3.50036621,3.50372314,3.49822998,3.50891113,3.50280762,3.4979248,3.48266602,3.48205566,3.48297119,3.47106934,3.46954346,3.46282959,3.47686768,3.48480225,0.00165588246,0.00191196846,0.0015444929,0.00155449891,0.00223872042,0.00139687746,0.00148018159,0.00138707552,0.00267150719,0.00225370028,0.00229087193,0.00281749084,0.00256384863,0.00227694307,0.00252571539,0.00298529235,0,0,0,0,0,0,0,0,0,0,0,0,0,0,0,0,0,0,0,0,0,0,0,0
246,2.609000,3,1,1,0,0,3.52172852,3.51928711,3.515625,3.52050781,3.51531982,3.52478027,3.52020264,3.51348877,3.50128174,3.49975586,3.50280762,3.487854,3.48876953,3.48236084,3.4954834,3.49945068,0.0100683654,0.00999366026,0.00980039313,0.0103199482,0.0100199599,0.01012892,0.00976904947,0.00981846545,0.0096898498,0.00941243209,0.00958788954,0.00883938465,0.00924895983,0.009423282,0.0103881974,0.00790640712,0,0,0,0,0,0,0,0,0,0,0,0,0,0,0,0,0,0,0,0,0,0,0,0
247,2.609000,3,1,1,0,0,3.50891113,3.50616455,3.50280762,3.50585938,3.50128174,3.51104736,3.50616455,3.50036621,3.48266602,3.48480225,3.48480225,3.47320557,3.47015381,3.46862793,3.47717285,3.48632812,-0.00196453184,-0.00137804274,-0.00136878958,-0.00153570971,-0.000944007421,-0.000984156271,-0.000778118789,-0.00135212892,-0.002625881,-0.00171867106,-0.00305075385,-0.0024464489,-0.00311434409,-0.00276180543,-0.00311866961,-0.00273076165,0,0,0,0,0,0,0,0,0,0,0,0,0,0,0,0,0,0,0,0,0,0,0,0
248,2.609000,3,1,1,0,0,3.50463867,3.50189209,3.49731445,3.50006104,3.49639893,3.50738525,3.50036621,3.4942627,3.48083496,3.47808838,3.48327637,3.47076416,3.46893311,3.46374512,3.47564697,3.48144531,0.00345456251,0.00374671863,0.00315531949,0.00248422939,0.00376590248,0.00293168612,0.00248596445,0.00296289334,0.00183773553,0.00263629807,0.00411322434,0.00362992333,0.00185290771,0.00148376171,0.00221390394,0.00284691155,0,0,0,0,0,0,0,0,0,0,0,0,0,0,0,0,0,0,0,0,0,0,0,0
249,2.609000,3,1,1,0,0,3.51593018,3.51287842,3.50952148,3.51379395,3.50769043,3.51867676,3.51104736,3.50738525,3.49212646,3.49273682,3.49334717,3.48449707,3.48022461,3.47320557,3.48693848,3.49456787,0.00236357911,0.0029852502,0.00280993409,0.00288158888,0.00299625844,0.00272066542,0.00127150025,0.00257662125,0.00297184824,0.00379517651,0.00117899885,0.00410124194,0.00174726173,0.000830706558,0.00202871929,0.00216250075,0,0,0,0,0,0,0,0,0,0,0,0,0,0,0,0,0,0,0,0,0,0,0,0
250,2.609000,3,1,1,0,0,3.51776123,3.51409912,3.51135254,3.51531982,3.51043701,3.51928711,3.51287842,3.50860596,3.49273682,3.49517822,3.49487305,3.48510742,3.47930908,3.47686768,3.48754883,3.49609375,0.00290757813,0.00339442748,0.00348836742,0.00258589094,0.00328921853,0.00299209892,0.00261199428,0.00314397947,0.00220118789,0.00324890856,0.00164326932,0.00244905986,0.00194133073,0.00208093785,0.00273847207,0.000741672236,0,0,0,0,0,0,0,0,0,0,0,0,0,0,0,0,0,0,0,0,0,0,0,0
251,2.609000,3,1,1,0,0,3.5168457,3.51379395,3.51013184,3.5144043,3.50860596,3.52020264,3.51226807,3.50738525,3.49304199,3.49304199,3.49456787,3.48205566,3.47991943,3.47412109,3.48693848,3.49517822,0.00792856142,0.00795053691,0.00800547563,0.00887536164,0.00881799031,0.00933685713,0.00845373329,0.00835583359,0.00972253177,0.00836164784,0.00910981745,0.00756598497,0.00967916008,0.00935085211,0.0095177507,0.00981485099,0,0,0,0,0,0,0,0,0,0,0,0,0,0,0,0,0,0,0,0,0,0,0,0
