record_index,sequence,time_s,tick_ms,tick_elapsed_ms,ch1_raw_uV,ch2_raw_uV,ch1_filtered_uV,ch2_filtered_uV,sequence_gap_before,byte_offset_adjustment,imputed_fields
2000,2000,1.0000000,159819,1000,19510.6699,26288.0469,-78.7104342149,-8.85907148707,0,0,
2001,2001,1.0005000,159819,1000,19517.4004,26287.8066,-77.4269633826,-8.06580804189,0,0,
2002,2002,1.0010000,159820,1001,19526.2949,26288.6484,-73.4836443446,-8.92679766707,0,0,
2003,2003,1.0015000,159820,1001,19532.0645,26291.4121,-70.5367582195,-6.08004335354,0,0,
2004,2004,1.0020000,159821,1002,19535.0703,26292.1328,-70.9084003439,-3.40887388853,0,0,
2005,2005,1.0025000,159821,1002,19530.502,26286.4844,-74.8432617396,-7.75219214023,0,0,
2006,2006,1.0030000,159822,1003,19530.623,26292.7344,-73.2375675336,-3.75557052821,0,0,
2007,2007,1.0035000,159822,1003,19539.1582,26303.6719,-62.4393616809,3.18602068011,0,0,
2008,2008,1.0040000,159823,1004,19546.3691,26310.1641,-52.5538631862,4.02339628397,0,0,
2009,2009,1.0045000,159823,1004,19558.9902,26310.2832,-39.2979820457,-0.739464136963,0,0,
2010,2010,1.0050000,159824,1005,19570.0488,26316.0547,-30.0082909951,-0.614921972542,0,0,
2011,2011,1.0055000,159824,1005,19575.6992,26324.9473,-27.6851340373,1.33747249654,0,0,
2012,2012,1.0060000,159825,1006,19585.1934,26330.7188,-20.2816324958,0.363505763543,0,0,
2013,2013,1.0065000,159825,1006,19597.0957,26331.3203,-12.194706335,-4.95951288087,0,0,
2014,2014,1.0070000,159826,1007,19604.5469,26323.8672,-6.6721969695,-14.7498224636,0,0,
2015,2015,1.0075000,159826,1007,19612.8418,26322.3047,-1.12769037034,-18.2294462978,0,0,
2016,2016,1.0080000,159827,1008,19617.6504,26316.8965,1.54838683246,-23.5717853011,0,0,
2017,2017,1.0085000,159827,1008,19625.582,26322.0645,8.69548623,-19.817474895,0,0,
2018,2018,1.0090000,159828,1009,19633.7559,26328.1953,13.1143114618,-16.0257002437,0,0,
2019,2019,1.0095000,159828,1009,19640.3672,26327.2324,16.6745949826,-20.9731807513,0,0,
2020,2020,1.0100000,159829,1010,19643.252,26331.3203,11.6359047067,-18.0669102771,0,0,
2021,2021,1.0105000,159829,1010,19650.2246,26332.4004,11.8082380447,-17.5307582321,0,0,
2022,2022,1.0110000,159830,1011,19658.3984,26336.7285,17.2338594841,-12.1701375688,0,0,
2023,2023,1.0115000,159830,1011,19662.123,26332.8828,19.3271286047,-16.5893885059,0,0,
2024,2024,1.0120000,159831,1012,19666.6914,26332.6406,23.3120579165,-15.8582185518,0,0,
2025,2025,1.0125000,159831,1012,19675.2266,26332.8828,32.3999601399,-13.1563731422,0,0,
2026,2026,1.0130000,159832,1013,19679.6738,26334.084,38.3008290791,-10.6093702225,0,0,
2027,2027,1.0135000,159832,1013,19685.084,26330.2363,43.4689614325,-12.5566459468,0,0,
2028,2028,1.0140000,159833,1014,19693.0156,26332.4004,51.590403287,-8.17939062163,0,0,
2029,2029,1.0145000,159833,1014,19699.2676,26335.8887,55.8558905475,-3.85250242795,0,0,
2030,2030,1.0150000,159834,1015,19703.1133,26340.5762,57.2181787293,1.95314345283,0,0,
2031,2031,1.0155000,159834,1015,19705.6387,26349.3496,57.061813568,8.65769877676,0,0,
2032,2032,1.0160000,159835,1016,19713.8105,26358.125,63.351565256,12.7403895225,0,0,
2033,2033,1.0165000,159835,1016,19724.9902,26360.5293,71.7648374897,9.8163122495,0,0,
2034,2034,1.0170000,159836,1017,19731.9629,26358.4844,74.3414139434,4.31656376206,0,0,
2035,2035,1.0175000,159836,1017,19737.3711,26356.0801,74.2497635402,1.9235225842,0,0,
2036,2036,1.0180000,159837,1018,19738.4531,26355,69.9539239226,-0.0922699372461,0,0,
2037,2037,1.0185000,159837,1018,19744.7031,26367.8613,71.3655144235,8.84976042026,0,0,
2038,2038,1.0190000,159838,1019,19748.6699,26371.9473,71.6795826689,7.62827674812,0,0,
2039,2039,1.0195000,159838,1019,19759.3691,26370.2656,76.0628360811,3.99828745014,0,0,
2040,2040,1.0200000,159839,1020,19767.6621,26352.8359,75.4135160489,-9.85198036025,0,0,
2041,2041,1.0205000,159839,1020,19772.3496,26344.3027,72.2486318003,-12.5809776967,0,0,
2042,2042,1.0210000,159840,1021,19780.4043,26342.0176,71.326444732,-11.1527346865,0,0,
2043,2043,1.0215000,159840,1021,19788.3379,26347.1875,71.0702778807,-2.09020473418,0,0,
2044,2044,1.0220000,159841,1022,19793.0254,26352.9551,66.4119446682,8.1517016247,0,0,
2045,2045,1.0225000,159841,1022,19795.4277,26369.5449,62.0539210773,25.4286765434,0,0,
2046,2046,1.0230000,159842,1023,19799.877,26389.0156,58.0736442278,37.9378268197,0,0,
2047,2047,1.0235000,159842,1023,19806.7285,26391.2988,55.3712244717,33.0481212673,0,0,
2048,2048,1.0240000,159843,1024,19814.1816,26386.373,53.5265951682,23.0122704452,0,0,
2049,2049,1.0245000,159843,1024,19820.9121,26375.3125,49.1698343299,10.9194357169,0,0,
2050,2050,1.0250000,159844,1025,19827.7637,26371.3457,43.9146563962,5.78941158304,0,0,
2051,2051,1.0255000,159844,1025,19829.9277,26375.6738,34.2599669655,7.70917311066,0,0,
2052,2052,1.0260000,159845,1026,19838.2207,26384.9297,30.9176893108,14.1156240751,0,0,
2053,2053,1.0265000,159845,1026,19844.9512,26378.1973,24.9589410367,7.20426433425,0,0,
2054,2054,1.0270000,159846,1027,19848.7988,26369.6641,19.0071000527,2.61793416813,0,0,
2055,2055,1.0275000,159846,1027,19855.7715,26366.0566,15.3887363827,1.90133545098,0,0,
2056,2056,1.0280000,159847,1028,19863.9434,26374.5938,13.3402684562,12.377601069,0,0,
2057,2057,1.0285000,159847,1028,19867.5508,26382.5254,7.96423973175,18.0759056043,0,0,
2058,2058,1.0290000,159848,1029,19875.4824,26390.3379,4.49003117574,22.1867608705,0,0,
2059,2059,1.0295000,159848,1029,19880.7715,26396.4688,-0.49361201819,23.211647261,0,0,
2060,2060,1.0300000,159849,1030,19887.9844,26403.4395,-7.48495121118,25.7001211791,0,0,
2061,2061,1.0305000,159849,1030,19893.3926,26415.9434,-15.7518745463,32.6677071409,0,0,
2062,2062,1.0310000,159850,1031,19894.7168,26429.1641,-23.6016556296,39.4803981757,0,0,
2063,2063,1.0315000,159850,1031,19899.043,26428.3223,-26.6755389111,32.4767181587,0,0,
2064,2064,1.0320000,159851,1032,19900.7266,26411.375,-31.0260067407,13.602319526,0,0,
2065,2065,1.0325000,159851,1032,19903.0098,26407.5293,-33.3348196935,9.84321072569,0,0,
2066,2066,1.0330000,159852,1033,19910.2227,26401.2793,-29.6564802261,4.07250780501,0,0,
2067,2067,1.0335000,159852,1033,19911.5449,26398.0312,-32.4835099678,2.53131389777,0,0,
2068,2068,1.0340000,159853,1034,19918.877,26397.0703,-29.2589599557,2.79086601071,0,0,
2069,2069,1.0345000,159853,1034,19919.959,26399.2344,-32.5481319416,4.90358673864,0,0,
2070,2070,1.0350000,159854,1035,19925.6074,26403.8027,-31.4755989887,9.23991084547,0,0,
2071,2071,1.0355000,159854,1035,19929.2129,26401.1562,-32.4296579036,5.04882540163,0,0,
2072,2072,1.0360000,159855,1036,19933.7812,26398.3926,-32.0654478884,0.530237428242,0,0,
2073,2073,1.0365000,159855,1036,19938.709,26397.6719,-31.3132183519,-1.12037845526,0,0,
2074,2074,1.0370000,159856,1037,19938.3496,26400.5566,-34.8272360091,1.66180621276,0,0,
2075,2075,1.0375000,159856,1037,19942.916,26401.7578,-33.9005226526,4.41727049605,0,0,
2076,2076,1.0380000,159857,1038,19944.8398,26401.0371,-34.8796721578,3.80252737341,0,0,
2077,2077,1.0385000,159857,1038,19945.8027,26396.7109,-36.4445571035,-2.59510933637,0,0,
2078,2078,1.0390000,159858,1039,19951.2109,26398.752,-32.5355998601,-2.14510510226,0,0,
2079,2079,1.0395000,159858,1039,19952.0527,26395.0254,-34.81169928,-3.8303635153,0,0,
2080,2080,1.0400000,159859,1040,19954.2168,26397.5527,-36.3748931204,3.85539143905,0,0,
2081,2081,1.0405000,159859,1040,19954.5762,26397.6719,-37.5960651764,7.22789192384,0,0,
2082,2082,1.0410000,159860,1041,19958.3027,26399.7129,-36.5394343751,8.78842883115,0,0,
2083,2083,1.0415000,159860,1041,19959.7461,26398.873,-36.2451185911,7.41665490414,0,0,
2084,2084,1.0420000,159861,1042,19961.7891,26401.7578,-35.5731653307,10.7234762474,0,0,
2085,2085,1.0425000,159861,1042,19964.9141,26400.1953,-31.9262000666,7.89712457313,0,0,
2086,2086,1.0430000,159862,1043,19965.7559,26399.5938,-32.0347254044,2.93105669013,0,0,
2087,2087,1.0435000,159862,1043,19969.4824,26405.6035,-30.4869199431,6.47653580034,0,0,
2088,2088,1.0440000,159863,1044,19971.6465,26398.3926,-29.8606534299,-0.248322068073,0,0,
2089,2089,1.0445000,159863,1044,19975.4922,26398.5137,-28.7978739257,2.08475187498,0,0,
2090,2090,1.0450000,159864,1045,19980.6621,26398.5137,-27.4637904658,1.64664402834,0,0,
2091,2091,1.0455000,159864,1045,19982.1035,26392.3828,-29.0623743872,-5.75962142808,0,0,
2092,2092,1.0460000,159865,1046,19983.666,26394.5469,-30.8328062225,-5.20259265698,0,0,
2093,2093,1.0465000,159865,1046,19988.1133,26397.1895,-30.3777532468,-1.07249139989,0,0,
2094,2094,1.0470000,159866,1047,19994.3633,26399.3535,-26.2886122545,3.89477524749,0,0,
2095,2095,1.0475000,159866,1047,19997.6094,26400.7969,-26.2402675489,5.31418947314,0,0,
2096,2096,1.0480000,159867,1048,19999.1719,26401.1562,-27.0570284292,4.14074030088,0,0,
2097,2097,1.0485000,159867,1048,19998.3301,26395.9902,-28.1025929221,-3.20809522043,0,0,
2098,2098,1.0490000,159868,1049,20004.3418,26398.1504,-25.3852621015,-3.52684862378,0,0,
2099,2099,1.0495000,159868,1049,20006.7441,26397.5527,-24.9180494152,-6.41357710669,0,0,
2100,2100,1.0500000,159869,1050,20009.3887,26397.9121,-27.4911018622,-7.17511116349,0,0,
2101,2101,1.0505000,159869,1050,20010.9512,26400.1953,-30.2988045099,-6.52456476626,0,0,
2102,2102,1.0510000,159870,1051,20014.918,26399.9551,-27.5204478339,-7.30122157068,0,0,
2103,2103,1.0515000,159870,1051,20020.4473,26403.5625,-23.2335574711,-2.92890315772,0,0,
2104,2104,1.0520000,159871,1052,20021.6504,26404.7637,-22.0944691561,1.40198430536,0,0,
2105,2105,1.0525000,159871,1052,20022.1309,26405.125,-20.8075163373,2.66832680711,0,0,
2106,2106,1.0530000,159872,1053,20025.6172,26403.9219,-16.4539491172,2.00639116858,0,0,
2107,2107,1.0535000,159872,1053,20029.2227,26406.2051,-12.2473949368,4.06600673061,0,0,
2108,2108,1.0540000,159873,1054,20028.8613,26404.2812,-12.1553154432,1.337130468,0,0,
2109,2109,1.0545000,159873,1054,20028.7422,26404.4043,-11.0820426625,-0.511536069337,0,0,
2110,2110,1.0550000,159874,1055,20030.0645,26400.3145,-9.37150908486,-5.46371905495,0,0,
2111,2111,1.0555000,159874,1055,20033.5488,26401.2793,-5.63913111324,-5.73856970305,0,0,
2112,2112,1.0560000,159875,1056,20034.6309,26399.4746,-4.09981001216,-9.13694055521,0,0,
2113,2113,1.0565000,159875,1056,20036.6758,26403.2012,-1.66646367225,-7.61643999841,0,0,
2114,2114,1.0570000,159876,1057,20037.6367,26408.6094,0.721775567016,-4.86950316519,0,0,
2115,2115,1.0575000,159876,1057,20039.5605,26414.5,2.66794764945,-0.717663686022,0,0,
2116,2116,1.0580000,159877,1058,20042.084,26415.3418,5.68743152845,-2.41087152507,0,0,
2117,2117,1.0585000,159877,1058,20042.3242,26422.3125,6.57435331684,-0.877077379414,0,0,
2118,2118,1.0590000,159878,1059,20039.5605,26425.1973,5.5028784883,-4.00538569233,0,0,
2119,2119,1.0595000,159878,1059,20043.0449,26429.8848,9.22926850044,-2.3905644225,0,0,
2120,2120,1.0600000,159879,1060,20043.2871,26431.0879,8.83887048659,-2.15050783104,0,0,
2121,2121,1.0605000,159879,1060,20042.8066,26430.7266,9.47926016218,-3.8086899133,0,0,
2122,2122,1.0610000,159880,1061,20047.0137,26433.252,12.6927955898,-5.48931545798,0,0,
2123,2123,1.0615000,159880,1061,20048.9355,26435.0547,14.7853125323,-7.33751448162,0,0,
2124,2124,1.0620000,159881,1062,20048.8145,26433.0098,14.5845262978,-11.5331277956,0,0,
2125,2125,1.0625000,159881,1062,20052.6621,26437.9395,19.1155930935,-10.0409605504,0,0,
2126,2126,1.0630000,159882,1063,20054.9473,26440.8223,20.7604899594,-13.4379616454,0,0,
2127,2127,1.0635000,159882,1063,20054.7051,26435.4141,18.8080154501,-22.1963225584,0,0,
2128,2128,1.0640000,159883,1064,20056.2676,26435.4141,19.281994252,-21.6187544856,0,0,
2129,2129,1.0645000,159883,1064,20054.4648,26435.4141,15.8462972701,-20.757702851,0,0,
2130,2130,1.0650000,159884,1065,20056.8691,26438.6621,15.6568782047,-19.0058706784,0,0,
2131,2131,1.0655000,159884,1065,20056.3887,26443.709,13.9342939892,-16.6580710613,0,0,
2132,2132,1.0660000,159885,1066,20058.3105,26445.873,13.8641622809,-18.5745349831,0,0,
2133,2133,1.0665000,159885,1066,20063.9609,26451.7637,15.7938503527,-14.488150472,0,0,
2134,2134,1.0670000,159886,1067,20064.6816,26455.0078,14.6400355995,-11.5534273341,0,0,
2135,2135,1.0675000,159886,1067,20064.3223,26459.8145,12.503413279,-9.27730547718,0,0,
2136,2136,1.0680000,159887,1068,20063,26469.0723,10.5268167597,-4.70970001169,0,0,
2137,2137,1.0685000,159887,1068,20063,26476.4043,11.4747421407,-3.21389461761,0,0,
2138,2138,1.0690000,159888,1069,20061.1973,26484.2168,7.88285588826,-3.19896118765,0,0,
2139,2139,1.0695000,159888,1069,20060.2344,26499.123,7.09348916221,2.52517574837,0,0,
2140,2140,1.0700000,159889,1070,20060.9551,26512.4629,5.15940394632,6.03673515517,0,0,
2141,2141,1.0705000,159889,1070,20063.7207,26511.7441,5.39589022466,-3.39803421399,0,0,
2142,2142,1.0710000,159890,1071,20064.2012,26507.2969,5.60240053492,-13.1750400915,0,0,
2143,2143,1.0715000,159890,1071,20068.5293,26503.8105,9.04272622093,-19.3666097261,0,0,
2144,2144,1.0720000,159891,1072,20075.3809,26504.291,15.2585722753,-18.3191238459,0,0,
2145,2145,1.0725000,159891,1072,20075.2598,26502.7285,15.1445635268,-19.8796634015,0,0,
2146,2146,1.0730000,159892,1073,20077.1836,26499.9629,16.5322593503,-21.7580326612,0,0,
2147,2147,1.0735000,159892,1073,20075.2598,26503.6895,14.6353631288,-18.2919977239,0,0,
2148,2148,1.0740000,159893,1074,20074.5391,26510.541,14.3505372503,-12.5934797509,0,0,
2149,2149,1.0745000,159893,1074,20074.7793,26515.4688,15.1655925562,-10.5647214151,0,0,
2150,2150,1.0750000,159894,1075,20074.4199,26521.8418,14.4893299797,-6.80927523287,0,0,
2151,2151,1.0755000,159894,1075,20079.1074,26528.6934,17.7898072591,-4.3363152702,0,0,
2152,2152,1.0760000,159895,1076,20081.5098,26530.1348,18.978154396,-6.85156457087,0,0,
2153,2153,1.0765000,159895,1076,20080.9102,26523.4043,17.260566462,-16.355040811,0,0,
2154,2154,1.0770000,159896,1077,20084.9961,26507.2969,20.4771281241,-31.2603017584,0,0,
2155,2155,1.0775000,159896,1077,20086.3184,26499.4824,19.6276771594,-34.5701513492,0,0,
2156,2156,1.0780000,159897,1078,20085.5977,26503.9297,17.5333504497,-26.2532063295,0,0,
2157,2157,1.0785000,159897,1078,20090.5254,26516.4316,20.6286740255,-14.8073927421,0,0,
2158,2158,1.0790000,159898,1079,20088.4824,26530.2559,18.0371950273,-3.97953377511,0,0,
2159,2159,1.0795000,159898,1079,20087.4004,26535.4238,14.8834355229,0.0915670121834,0,0,
2160,2160,1.0800000,159899,1080,20089.4434,26538.5488,14.4130912645,4.15489482588,0,0,
2161,2161,1.0805000,159899,1080,20091.4863,26543.3574,14.9833197451,8.97852487343,0,0,
2162,2162,1.0810000,159900,1081,20095.5742,26541.6738,15.0377190206,5.33350135327,0,0,
2163,2163,1.0815000,159900,1081,20097.9785,26538.9082,14.7749601088,2.0900135014,0,0,
2164,2164,1.0820000,159901,1082,20098.9395,26535.6641,13.1613181484,0.46820930788,0,0,
2165,2165,1.0825000,159901,1082,20098.6992,26533.6191,11.0546868411,-1.19954069522,0,0,
2166,2166,1.0830000,159902,1083,20099.0605,26536.5059,9.23278053362,-0.0828598612333,0,0,
2167,2167,1.0835000,159902,1083,20099.541,26544.6797,7.06228226082,7.38456864567,0,0,
2168,2168,1.0840000,159903,1084,20100.0215,26549.4863,5.25970632524,12.5198433451,0,0,
2169,2169,1.0845000,159903,1084,20100.9824,26558.2637,3.67280249735,20.1888573617,0,0,
2170,2170,1.0850000,159904,1085,20101.8262,26568.4785,0.730489989543,25.6023799645,0,0,
2171,2171,1.0855000,159904,1085,20101.3438,26568.1191,-1.81272062595,20.4934052107,0,0,
2172,2172,1.0860000,159905,1086,20101.8262,26579.6582,-4.13394991552,25.1345074753,0,0,
2173,2173,1.0865000,159905,1086,20105.1895,26582.3027,-5.22403105756,22.8995355944,0,0,
2174,2174,1.0870000,159906,1087,20103.5078,26586.2676,-8.41281314758,23.823298529,0,0,
2175,2175,1.0875000,159906,1087,20098.8203,26587.1094,-13.5044027731,20.5378709681,0,0,
2176,2176,1.0880000,159907,1088,20106.0332,26588.3125,-7.38495504482,16.6800501584,0,0,
2177,2177,1.0885000,159907,1088,20110.4785,26585.1875,-3.83649863768,9.95628633986,0,0,
2178,2178,1.0890000,159908,1089,20110.9609,26580.9785,-6.34635816708,2.5548990453,0,0,
2179,2179,1.0895000,159908,1089,20109.998,26582.541,-8.70449832107,0.459331179562,0,0,
2180,2180,1.0900000,159909,1090,20106.1523,26578.8184,-15.4465955617,-4.55352890956,0,0,
2181,2181,1.0905000,159909,1090,20102.1855,26573.5293,-21.2070677306,-7.55378242491,0,0,
2182,2182,1.0910000,159910,1091,20107.7148,26579.7793,-16.2254764883,1.2397760542,0,0,
2183,2183,1.0915000,159910,1091,20108.4355,26581.5801,-16.5594235931,5.60083472185,0,0,
2184,2184,1.0920000,159911,1092,20110.3594,26586.3887,-15.0418567607,13.2475802444,0,0,
2185,2185,1.0925000,159911,1092,20113.6035,26590.5957,-11.0184245153,18.5999534369,0,0,
2186,2186,1.0930000,159912,1093,20113.123,26592.0391,-11.1264614746,20.9379205841,0,0,
2187,2187,1.0935000,159912,1093,20113.7246,26588.0723,-9.47289007789,16.8650494703,0,0,
2188,2188,1.0940000,159913,1094,20114.6855,26592.2793,-7.71739799028,19.7517040981,0,0,
2189,2189,1.0945000,159913,1094,20113.123,26593.7207,-8.18882546106,19.1440172129,0,0,
2190,2190,1.0950000,159914,1095,20112.8848,26596.6074,-7.94758880574,20.1415436757,0,0,
2191,2191,1.0955000,159914,1095,20108.7969,26594.6816,-11.7251414106,16.0566898336,0,0,
2192,2192,1.0960000,159915,1096,20109.6387,26596.125,-9.82884195294,16.1662515875,0,0,
2193,2193,1.0965000,159915,1096,20114.8066,26596.4863,-4.23583942665,15.8452190481,0,0,
2194,2194,1.0970000,159916,1097,20114.4473,26596.8457,-4.13263221058,16.9986864286,0,0,
2195,2195,1.0975000,159916,1097,20113.8457,26596.3672,-4.50888290486,16.7921268032,0,0,
2196,2196,1.0980000,159917,1098,20112.7637,26601.0547,-4.41537184359,18.84856583,0,0,
2197,2197,1.0985000,159917,1098,20116.1289,26599.4922,-1.25739019764,12.0045744229,0,0,
2198,2198,1.0990000,159918,1099,20117.5723,26598.8906,1.55803468687,7.02398320938,0,0,
2199,2199,1.0995000,159918,1099,20119.9746,26593.3613,3.13743407952,2.10676902811,0,0,
2200,2200,1.1000000,159919,1100,20122.7402,26586.8691,3.92341204342,-0.422940160063,0,0,
2201,2201,1.1005000,159919,1100,20121.0566,26589.6348,1.81129777434,4.91511771039,0,0,
2202,2202,1.1010000,159920,1101,20117.8125,26595.0449,-2.95922461626,10.5676373639,0,0,
2203,2203,1.1015000,159920,1101,20118.4121,26598.1699,-2.31535671231,13.684906127,0,0,
2204,2204,1.1020000,159921,1102,20120.4551,26594.6816,-0.312948525446,11.6774398259,0,0,
2205,2205,1.1025000,159921,1102,20120.6973,26592.5215,0.397212528166,9.50060322379,0,0,
2206,2206,1.1030000,159922,1103,20119.9746,26587.4707,-0.201027520227,3.01623024772,0,0,
2207,2207,1.1035000,159922,1103,20124.1816,26585.7891,2.8205880715,1.22351995738,0,0,
2208,2208,1.1040000,159923,1104,20126.9473,26583.625,4.14562621198,1.29618474766,0,0,
2209,2209,1.1045000,159923,1104,20124.4238,26583.7441,0.507948114561,2.76999620255,0,0,
2210,2210,1.1050000,159924,1105,20124.543,26582.6641,-1.41073291052,1.28457485747,0,0,
2211,2211,1.1055000,159924,1105,20123.3418,26585.5469,-2.97978357095,4.44072801591,0,0,
2212,2212,1.1060000,159925,1106,20124.1816,26587.7109,-3.48546130158,3.80516228626,0,0,
2213,2213,1.1065000,159925,1106,20117.3301,26596.8457,-11.6956044379,11.4343218852,0,0,
2214,2214,1.1070000,159926,1107,20112.2832,26602.7363,-14.3612386541,15.9671169229,0,0,
2215,2215,1.1075000,159926,1107,20109.998,26602.9766,-13.5915196072,14.1865009234,0,0,
2216,2216,1.1080000,159927,1108,20112.6426,26599.0098,-10.2628832138,7.8899812671,0,0,
2217,2217,1.1085000,159927,1108,20121.1777,26595.6465,-1.46525981899,3.74931305451,0,0,
2218,2218,1.1090000,159928,1109,20114.5664,26596.3672,-7.53618627921,2.78408455683,0,0,
2219,2219,1.1095000,159928,1109,20111.2012,26594.4434,-8.68486866363,-2.03366503481,0,0,
2220,2220,1.1100000,159929,1110,20112.6426,26596.2441,-7.05136418975,-1.59051658003,0,0,
2221,2221,1.1105000,159929,1110,20113.7246,26595.4043,-6.11950834519,-1.68781173,0,0,
2222,2222,1.1110000,159930,1111,20113.2441,26606.4629,-6.65976942078,6.95338140403,0,0,
2223,2223,1.1115000,159930,1111,20114.9277,26613.1953,-4.87392209212,11.2886197,0,0,
2224,2224,1.1120000,159931,1112,20114.8066,26614.2754,-4.42314125973,10.487170374,0,0,
2225,2225,1.1125000,159931,1112,20112.7637,26612.7129,-4.40882340031,7.07225306478,0,0,
2226,2226,1.1130000,159932,1113,20109.8789,26616.0781,-4.63511321861,8.60039675573,0,0,
2227,2227,1.1135000,159932,1113,20109.8789,26619.084,-1.87278806552,8.79121769042,0,0,
2228,2228,1.1140000,159933,1114,20112.6426,26614.877,2.70256010136,1.00005467592,0,0,
2229,2229,1.1145000,159933,1114,20117.4512,26606.3438,8.5714657979,-9.10851916041,0,0,
2230,2230,1.1150000,159934,1115,20116.3691,26605.9824,7.84526740383,-10.6918934069,0,0,
2231,2231,1.1155000,159934,1115,20113.3652,26604.2988,5.53166770396,-13.0402095602,0,0,
2232,2232,1.1160000,159935,1116,20112.6426,26606.584,5.31643594961,-11.7508331421,0,0,
2233,2233,1.1165000,159935,1116,20111.6816,26613.3145,4.58270139712,-6.61227521457,0,0,
2234,2234,1.1170000,159936,1117,20111.5605,26610.9121,5.6018471736,-8.83995690409,0,0,
2235,2235,1.1175000,159936,1117,20113.4844,26608.0254,7.84957029639,-11.3062511879,0,0,
2236,2236,1.1180000,159937,1118,20117.9316,26608.748,12.2791462642,-12.771855496,0,0,
2237,2237,1.1185000,159937,1118,20118.5332,26603.9395,11.3995929499,-20.0497142556,0,0,
2238,2238,1.1190000,159938,1119,20115.168,26611.9922,9.1069048052,-15.7637378827,0,0,
2239,2239,1.1195000,159938,1119,20109.7578,26621.9688,4.22865845403,-7.54897014405,0,0,
2240,2240,1.1200000,159939,1120,20108.3164,26626.5371,2.88009866528,-3.66764022145,0,0,
2241,2241,1.1205000,159939,1120,20104.2285,26620.166,1.16372392886,-11.3511374164,0,0,
2242,2242,1.1210000,159940,1121,20109.8789,26611.873,6.53878025646,-20.2788984132,0,0,
2243,2243,1.1215000,159940,1121,20107.834,26606.7031,5.0398910062,-24.0945943971,0,0,
2244,2244,1.1220000,159941,1122,20108.0762,26607.1855,5.63717668094,-20.573414425,0,0,
2245,2245,1.1225000,159941,1122,20112.4023,26601.8965,10.0948497546,-23.6773756374,0,0,
2246,2246,1.1230000,159942,1123,20112.6426,26598.0488,10.09903108,-26.1620207702,0,0,
2247,2247,1.1235000,159942,1123,20117.4512,26598.8906,12.4397396936,-24.1090614025,0,0,
2248,2248,1.1240000,159943,1124,20113.2441,26606.4629,7.17500738904,-15.2262656036,0,0,
2249,2249,1.1245000,159943,1124,20113.9648,26609.5879,7.38035103879,-12.3220141999,0,0,
2250,2250,1.1250000,159944,1125,20110.8398,26608.3848,3.00325063067,-14.5952704576,0,0,
2251,2251,1.1255000,159944,1125,20103.2676,26615.8379,-3.11932020249,-9.10668017682,0,0,
2252,2252,1.1260000,159945,1126,20101.2246,26619.9277,-4.59553608617,-9.31918228697,0,0,
2253,2253,1.1265000,159945,1126,20105.1895,26621.248,-0.904484594136,-10.8145028804,0,0,
2254,2254,1.1270000,159946,1127,20107.7148,26623.1719,2.41622794743,-9.96888565015,0,0,
2255,2255,1.1275000,159946,1127,20109.5176,26619.8047,4.29961872448,-13.0030058958,0,0,
2256,2256,1.1280000,159947,1128,20112.5234,26618.9629,4.62149087997,-13.5103045148,0,0,
2257,2257,1.1285000,159947,1128,20113.123,26616.5605,2.75114006249,-14.6048128862,0,0,
2258,2258,1.1290000,159948,1129,20115.5293,26612.2324,4.28815508074,-18.1331439109,0,0,
2259,2259,1.1295000,159948,1129,20116.1289,26607.5449,4.12477331973,-21.9431036743,0,0,
2260,2260,1.1300000,159949,1130,20117.0918,26597.0879,2.11397862528,-28.7726137543,0,0,
2261,2261,1.1305000,159949,1130,20114.9277,26583.2637,-2.3195542751,-34.5662747366,0,0,
2262,2262,1.1310000,159950,1131,20112.041,26579.416,-6.42285834244,-33.0097435505,0,0,
2263,2263,1.1315000,159950,1131,20109.7578,26593.9609,-9.3301542162,-14.543580118,0,0,
2264,2264,1.1320000,159951,1132,20108.1953,26605.1406,-10.4472083925,-0.523747007132,0,0,
2265,2265,1.1325000,159951,1132,20105.9121,26619.9277,-10.6514586904,14.0492719598,0,0,
2266,2266,1.1330000,159952,1133,20109.6387,26628.0996,-5.47832760485,20.0021116987,0,0,
2267,2267,1.1335000,159952,1133,20111.8027,26634.4707,-2.66129728388,22.8383108138,0,0,
2268,2268,1.1340000,159953,1134,20109.1582,26635.9121,-4.74007225283,20.6155915588,0,0,
2269,2269,1.1345000,159953,1134,20104.5898,26629.0605,-7.86171285439,12.4682194212,0,0,
2270,2270,1.1350000,159954,1135,20108.3164,26614.877,-3.1075324515,-1.46607816865,0,0,
2271,2271,1.1355000,159954,1135,20110.8398,26613.1953,-0.0113834720143,-2.23102180424,0,0,
2272,2272,1.1360000,159955,1136,20102.1855,26619.2051,-7.0763182769,2.82837516769,0,0,
2273,2273,1.1365000,159955,1136,20100.1426,26628.0996,-7.56112818497,8.9735691793,0,0,
2274,2274,1.1370000,159956,1137,20099.0605,26633.1484,-6.43731755759,13.1386774139,0,0,
2275,2275,1.1375000,159956,1137,20096.2949,26639.7598,-7.25727055296,17.4946907103,0,0,
2276,2276,1.1380000,159957,1138,20097.9785,26643.9668,-4.06709127016,16.316177541,0,0,
2277,2277,1.1385000,159957,1138,20099.0605,26637.5957,-2.18812559017,6.18401708314,0,0,
2278,2278,1.1390000,159958,1139,20100.1426,26641.6816,1.45116475765,3.97825450839,0,0,
2279,2279,1.1395000,159958,1139,20097.1367,26642.4043,0.408473500671,1.6632448627,0,0,
2280,2280,1.1400000,159959,1140,20098.6992,26647.6934,2.13724937629,5.77384376465,0,0,
2281,2281,1.1405000,159959,1140,20100.8633,26647.5723,5.6169658061,5.02296444885,0,0,
2282,2282,1.1410000,159960,1141,20100.1426,26652.5,3.49914339211,7.81711355685,0,0,
2283,2283,1.1415000,159960,1141,20097.377,26659.9531,1.72048108369,12.0088555397,0,0,
2284,2284,1.1420000,159961,1142,20096.0547,26664.8828,1.06611350215,13.6130540844,0,0,
2285,2285,1.1425000,159961,1142,20094.6133,26674.7363,0.370502059736,18.3582635786,0,0,
2286,2286,1.1430000,159962,1143,20092.6895,26675.459,0.0117985956435,13.0469073822,0,0,
2287,2287,1.1435000,159962,1143,20094.0117,26674.0176,0.686099970092,5.89047249586,0,0,
2288,2288,1.1440000,159963,1144,20090.4062,26674.6172,-0.961726477332,1.67917306088,0,0,
2289,2289,1.1445000,159963,1144,20090.0449,26679.4277,0.0541268226149,1.67355916243,0,0,
2290,2290,1.1450000,159964,1145,20089.084,26694.6934,0.0271073337416,9.71902786734,0,0,
2291,2291,1.1455000,159964,1145,20092.0879,26692.7676,4.7965139891,0.787397908706,0,0,
2292,2292,1.1460000,159965,1146,20089.6855,26678.8262,2.45317560999,-17.1807053696,0,0,
2293,2293,1.1465000,159965,1146,20091.9688,26668.127,3.28923439226,-27.595751975,0,0,
2294,2294,1.1470000,159966,1147,20092.8105,26658.1504,4.18356079499,-33.7766944521,0,0,
2295,2295,1.1475000,159966,1147,20097.377,26653.1016,7.83386754147,-32.823401298,0,0,
2296,2296,1.1480000,159967,1148,20099.0605,26656.1074,6.45777872617,-25.4475866792,0,0,
2297,2297,1.1485000,159967,1148,20098.2188,26660.4355,3.52038349901,-17.2532150651,0,0,
2298,2298,1.1490000,159968,1149,20093.0508,26661.998,-1.36963977185,-13.1271686635,0,0,
2299,2299,1.1495000,159968,1149,20092.5684,26661.0332,-1.06389198316,-12.1415103077,0,0,
2300,2300,1.1500000,159969,1150,20092.8105,26656.5879,-1.90070067399,-12.3942889552,0,0,
2301,2301,1.1505000,159969,1150,20094.1309,26654.4238,-1.31657834031,-8.29422888308,0,0,
2302,2302,1.1510000,159970,1151,20091.6074,26660.4355,-3.75885506666,-1.70330381909,0,0,
2303,2303,1.1515000,159970,1151,20091.7285,26664.4004,-3.75434033772,0.504242519265,0,0,
2304,2304,1.1520000,159971,1152,20090.166,26667.0449,-4.7528675513,3.18377468378,0,0,
2305,2305,1.1525000,159971,1152,20090.2852,26660.0723,-3.10783030191,-2.5866955506,0,0,
2306,2306,1.1530000,159972,1153,20090.0449,26661.3965,-2.74672255918,0.674217682285,0,0,
2307,2307,1.1535000,159972,1153,20090.4062,26669.3281,-1.78564010236,9.05327101925,0,0,
2308,2308,1.1540000,159973,1154,20089.2031,26675.0996,-1.83423837407,14.8713261846,0,0,
2309,2309,1.1545000,159973,1154,20088.8418,26675.5801,-0.812644877653,17.1950182153,0,0,
2310,2310,1.1550000,159974,1155,20093.5312,26676.9004,3.08669912719,19.8738455748,0,0,
2311,2311,1.1555000,159974,1155,20086.6797,26678.8262,-2.77683071818,20.5593050846,0,0,
2312,2312,1.1560000,159975,1156,20086.4395,26673.7754,-0.694125158828,13.5736367102,0,0,
2313,2313,1.1565000,159975,1156,20087.5215,26671.1328,0.767462584837,9.20420228023,0,0,
2314,2314,1.1570000,159976,1157,20090.5254,26667.7656,3.78504933026,7.75928849664,0,0,
2315,2315,1.1575000,159976,1157,20089.4434,26668.4863,2.71366046305,9.71344526015,0,0,
2316,2316,1.1580000,159977,1158,20084.6348,26674.1387,-1.86125678668,13.7906052523,0,0,
2317,2317,1.1585000,159977,1158,20084.877,26678.1035,-1.5847928514,17.1431441495,0,0,
2318,2318,1.1590000,159978,1159,20083.0723,26677.502,-1.34322536125,12.4511605651,0,0,
2319,2319,1.1595000,159978,1159,20081.2715,26678.3438,-0.982233137035,12.1538119547,0,0,
2320,2320,1.1600000,159979,1160,20078.9863,26678.7051,-2.70984360621,12.598599027,0,0,
2321,2321,1.1605000,159979,1160,20075.7402,26682.791,-3.61577511015,17.129792471,0,0,
2322,2322,1.1610000,159980,1161,20078.1445,26687,-1.21974611513,19.4371833953,0,0,
2323,2323,1.1615000,159980,1161,20073.3379,26685.7969,-3.42723867109,16.3610991939,0,0,
2324,2324,1.1620000,159981,1162,20075.8613,26682.4316,0.263819544112,12.8116713857,0,0,
2325,2325,1.1625000,159981,1162,20077.4238,26678.9453,2.44202779603,8.78440272926,0,0,
2326,2326,1.1630000,159982,1163,20072.9766,26672.8145,-0.131742898,3.81671507427,0,0,
2327,2327,1.1635000,159982,1163,20073.2168,26680.1484,-0.260512211373,10.4440889597,0,0,
2328,2328,1.1640000,159983,1164,20073.3379,26687.2402,1.7932983207,15.2357646236,0,0,
2329,2329,1.1645000,159983,1164,20069.7305,26688.3203,-0.349951018907,13.4382691785,0,0,
2330,2330,1.1650000,159984,1165,20067.6875,26688.2012,-0.983040423517,8.93072066584,0,0,
2331,2331,1.1655000,159984,1165,20070.9316,26676.7812,3.41847512914,-2.06572285595,0,0,
2332,2332,1.1660000,159985,1166,20067.5684,26668.127,1.09632662527,-7.36864853946,0,0,
2333,2333,1.1665000,159985,1166,20070.4512,26663.7988,2.68377770645,-7.52623118875,0,0,
2334,2334,1.1670000,159986,1167,20071.6543,26664.8828,3.96005119308,-2.29694666215,0,0,
2335,2335,1.1675000,159986,1167,20068.6484,26665.9629,0.935963526283,2.23914227374,0,0,
2336,2336,1.1680000,159987,1168,20068.2891,26669.209,-0.33845015586,5.87277639851,0,0,
2337,2337,1.1685000,159987,1168,20065.5234,26670.5312,-2.57626380873,7.45465447414,0,0,
2338,2338,1.1690000,159988,1169,20063.4805,26672.4531,-2.16802124842,9.01212240582,0,0,
2339,2339,1.1695000,159988,1169,20060.1152,26674.8594,-3.23513908402,10.3662933319,0,0,
2340,2340,1.1700000,159989,1170,20059.5137,26676.7812,-3.2100772037,12.5152624868,0,0,
2341,2341,1.1705000,159989,1170,20059.2734,26677.623,-2.67353499483,14.3471100593,0,0,
2342,2342,1.1710000,159990,1171,20061.0762,26674.6172,0.275975686733,8.13382595262,0,0,
2343,2343,1.1715000,159990,1171,20063.1191,26672.2129,2.27015118608,2.39006390761,0,0,
2344,2344,1.1720000,159991,1172,20060.1152,26671.373,0.315123644986,0.527320354903,0,0,
2345,2345,1.1725000,159991,1172,20058.3105,26670.1699,0.270325365235,-0.0483428354443,0,0,
2346,2346,1.1730000,159992,1173,20055.7871,26673.0547,-0.826570640429,2.05923542358,0,0,
2347,2347,1.1735000,159992,1173,20053.7441,26681.7109,-1.25016827247,7.32310424273,0,0,
2348,2348,1.1740000,159993,1174,20054.9473,26687.3594,1.67604149442,9.81122872718,0,0,
2349,2349,1.1745000,159993,1174,20053.9844,26686.7578,2.43434057836,8.86203743347,0,0,
2350,2350,1.1750000,159994,1175,20058.5527,26688.2012,5.86188938874,9.45274087319,0,0,
2351,2351,1.1755000,159994,1175,20051.9414,26681.4688,1.71926011953,1.4483349211,0,0,
2352,2352,1.1760000,159995,1176,20049.7773,26683.5137,2.01129616598,1.63245555911,0,0,
2353,2353,1.1765000,159995,1176,20052.6621,26680.9902,5.05831396109,-3.0385513545,0,0,
2354,2354,1.1770000,159996,1177,20051.5801,26675.9395,4.17048799432,-6.77521233643,0,0,
2355,2355,1.1775000,159996,1177,20052.0605,26675.0996,5.2248720576,-7.32580184733,0,0,
2356,2356,1.1780000,159997,1178,20048.6953,26672.6953,2.98124811691,-11.0842727475,0,0,
2357,2357,1.1785000,159997,1178,20050.0176,26673.5371,3.95633608787,-9.99893785068,0,0,
2358,2358,1.1790000,159998,1179,20048.0957,26677.502,3.69308634771,-8.69310216639,0,0,
2359,2359,1.1795000,159998,1179,20047.7344,26675.9395,4.77054845636,-10.4650065723,0,0,
2360,2360,1.1800000,159999,1180,20047.7344,26673.8965,4.58946265965,-11.2766605933,0,0,
2361,2361,1.1805000,159999,1180,20051.3398,26670.8906,8.34544286376,-12.2747530974,0,0,
2362,2362,1.1810000,160000,1181,20048.8145,26671.9746,4.09766775069,-10.7226704922,0,0,
2363,2363,1.1815000,160000,1181,20047.1328,26685.1953,3.72622356439,0.979287434172,0,0,
2364,2364,1.1820000,160001,1182,20043.7676,26690.3652,0.327780497504,4.75013803167,0,0,
2365,2365,1.1825000,160001,1182,20045.8105,26683.6328,2.02986052387,-2.81598753416,0,0,
2366,2366,1.1830000,160002,1183,20049.5371,26661.877,6.08006306374,-20.326157359,0,0,
2367,2367,1.1835000,160002,1183,20053.623,26636.9941,7.18627522772,-39.0890995325,0,0,
2368,2368,1.1840000,160003,1184,20052.9023,26633.5078,5.76975251376,-36.4058143739,0,0,
2369,2369,1.1845000,160003,1184,20050.6191,26637.4766,3.15829510996,-27.046603338,0,0,
2370,2370,1.1850000,160004,1185,20042.9258,26644.0859,-3.87718900426,-18.1863158796,0,0,
2371,2371,1.1855000,160004,1185,20037.877,26654.4238,-7.80695618779,-4.37353258529,0,0,
2372,2372,1.1860000,160005,1186,20038.5996,26652.2598,-5.55592419913,-2.75116989343,0,0,
2373,2373,1.1865000,160005,1186,20037.877,26643.8457,-7.16230269978,-6.82324583814,0,0,
2374,2374,1.1870000,160006,1187,20035.4727,26640.4785,-8.35922413173,-6.17485750656,0,0,
2375,2375,1.1875000,160006,1187,20037.1562,26635.1934,-5.71170000293,-6.8977101679,0,0,
2376,2376,1.1880000,160007,1188,20037.1562,26637.1152,-6.09469706292,-3.29681928238,0,0,
2377,2377,1.1885000,160007,1188,20033.3105,26632.9082,-8.48016840942,-4.72152235123,0,0,
2378,2378,1.1890000,160008,1189,20029.1035,26631.7051,-9.44836142551,-3.50000346001,0,0,
2379,2379,1.1895000,160008,1189,20028.9824,26628.4609,-6.88261376122,-4.24784963453,0,0,
2380,2380,1.1900000,160009,1190,20023.8145,26628.2188,-10.3709942312,-0.917750682784,0,0,
2381,2381,1.1905000,160009,1190,20022.4902,26614.7578,-9.8443724579,-7.66153210455,0,0,
2382,2382,1.1910000,160010,1191,20022.4902,26600.334,-7.87186121856,-16.4048491177,0,0,
2383,2383,1.1915000,160010,1191,20022.8516,26585.0684,-6.34608808984,-24.6011237274,0,0,
2384,2384,1.1920000,160011,1192,20024.5352,26570.7637,-2.66891359696,-28.7708902041,0,0,
2385,2385,1.1925000,160011,1192,20024.6543,26569.0801,-0.672311610765,-20.1154358416,0,0,
2386,2386,1.1930000,160012,1193,20020.8086,26565.9551,-2.51419616614,-14.8884902853,0,0,
2387,2387,1.1935000,160012,1193,20022.0098,26580.2578,0.0792176003852,2.17782417647,0,0,
2388,2388,1.1940000,160013,1194,20020.8086,26596.3672,0.188100068753,18.7802938293,0,0,
2389,2389,1.1945000,160013,1194,20016.7207,26609.5879,-1.55277641258,32.5787168995,0,0,
2390,2390,1.1950000,160014,1195,20014.4375,26610.6699,-3.63513386005,33.1026973873,0,0,
2391,2391,1.1955000,160014,1195,20013.2363,26608.748,-0.740767434126,30.6905685289,0,0,
2392,2392,1.1960000,160015,1196,20015.5195,26599.7324,3.75509111612,20.8824131302,0,0,
2393,2393,1.1965000,160015,1196,20022.8516,26598.2891,9.57935475044,18.7676936593,0,0,
2394,2394,1.1970000,160016,1197,20025.4961,26597.8066,10.9209104542,19.66793923,0,0,
2395,2395,1.1975000,160016,1197,20022.3711,26600.334,7.34747937955,21.0482682864,0,0,
2396,2396,1.1980000,160017,1198,20021.1699,26613.7949,6.59060209564,29.1835827677,0,0,
2397,2397,1.1985000,160017,1198,20016.6016,26618.2422,1.61318936379,28.4470419936,0,0,
2398,2398,1.1990000,160018,1199,20016.3613,26626.1777,2.90017516688,27.8052736844,0,0,
2399,2399,1.1995000,160018,1199,20017.5625,26623.7734,4.85904448232,20.4687305728,0,0,
2400,2400,1.2000000,160019,1200,20018.6445,26618.002,5.18413493327,12.1155528062,0,0,
2401,2401,1.2005000,160019,1200,20016.6016,26607.5449,3.09144937541,1.63766409793,0,0,
2402,2402,1.2010000,160020,1201,20015.4004,26598.4082,1.30958886054,-7.45056543432,0,0,
2403,2403,1.2015000,160020,1201,20018.2832,26591.5566,4.946873084,-14.4674489056,0,0,
2404,2404,1.2020000,160021,1202,20016.2402,26590.5957,2.75008917393,-13.1124567119,0,0,
2405,2405,1.2025000,160021,1202,20017.4434,26591.9199,2.71488449248,-8.72276551128,0,0,
2406,2406,1.2030000,160022,1203,20017.9238,26591.0781,2.85451159698,-3.83386117406,0,0,
2407,2407,1.2035000,160022,1203,20019.6074,26591.5566,1.97347036747,-0.358965965152,0,0,
2408,2408,1.2040000,160023,1204,20021.2891,26595.2832,3.37837589928,1.23044864516,0,0,
2409,2409,1.2045000,160023,1204,20018.4043,26600.2129,0.94782828158,2.4400524747,0,0,
2410,2410,1.2050000,160024,1205,20015.7598,26603.9395,-0.344694760274,0.704294043667,0,0,
2411,2411,1.2055000,160024,1205,20007.9473,26612.1113,-6.3507426887,4.6843509033,0,0,
2412,2412,1.2060000,160025,1206,20002.0566,26610.5488,-9.96227420395,2.16553558557,0,0,
2413,2413,1.2065000,160025,1206,19999.4121,26602.2559,-11.6756586248,-4.86291935704,0,0,
2414,2414,1.2070000,160026,1207,19998.2109,26592.5215,-10.3122018339,-12.8859122005,0,0,
2415,2415,1.2075000,160026,1207,20000.6152,26587.4707,-6.6228708166,-15.1034310228,0,0,
2416,2416,1.2080000,160027,1208,20000.1348,26585.7891,-6.54045095018,-16.7022919048,0,0,
2417,2417,1.2085000,160027,1208,19996.6465,26583.9844,-7.37394463514,-16.5408659204,0,0,
2418,2418,1.2090000,160028,1209,19995.084,26578.0957,-5.38700222555,-20.201163119,0,0,
2419,2419,1.2095000,160028,1209,19992.5605,26574.7285,-5.18842817238,-20.7009791938,0,0,
2420,2420,1.2100000,160029,1210,19997.1289,26577.6152,0.368933207477,-15.1944250976,0,0,
2421,2421,1.2105000,160029,1210,19999.4121,26580.9785,2.41317770111,-7.12225615404,0,0,
2422,2422,1.2110000,160030,1211,19994.0039,26587.4707,-2.15351789903,-0.148563385243,0,0,
2423,2423,1.2115000,160030,1211,19992.2012,26595.4043,-3.3227156403,5.88787887091,0,0,
2424,2424,1.2120000,160031,1212,19992.8008,26594.5625,-1.45742042005,4.04636470087,0,0,
2425,2425,1.2125000,160031,1212,19991.7207,26586.9902,-0.806404949841,-4.31443380561,0,0,
2426,2426,1.2130000,160032,1213,19990.7578,26577.4941,0.28868513651,-13.3685895504,0,0,
2427,2427,1.2135000,160032,1213,19989.3145,26570.7637,-0.0650714408272,-22.5152400274,0,0,
2428,2428,1.2140000,160033,1214,19993.1621,26573.6484,4.2964280048,-21.0943577098,0,0,
2429,2429,1.2145000,160033,1214,19993.5215,26575.5703,5.79432844034,-17.5625352941,0,0,
2430,2430,1.2150000,160034,1215,19991.7207,26577.0137,3.1256718937,-13.0571432739,0,0,
2431,2431,1.2155000,160034,1215,19990.5176,26575.6895,4.10109101951,-10.8423549478,0,0,
2432,2432,1.2160000,160035,1216,19987.0312,26577.375,1.86480852693,-6.56881883778,0,0,
2433,2433,1.2165000,160035,1216,19986.4316,26573.166,0.104144393673,-8.97628150647,0,0,
2434,2434,1.2170000,160036,1217,19985.4688,26572.5645,-0.32641157641,-6.25145482524,0,0,
2435,2435,1.2175000,160036,1217,19988.3535,26569.0801,3.57316750598,-7.82640054637,0,0,
2436,2436,1.2180000,160037,1218,19986.5508,26561.3887,3.13934940448,-15.1353492388,0,0,
2437,2437,1.2185000,160037,1218,19982.584,26560.1855,0.353971477746,-13.4171652346,0,0,
2438,2438,1.2190000,160038,1219,19981.9824,26563.4297,1.59768158377,-10.3841225304,0,0,
2439,2439,1.2195000,160038,1219,19981.1426,26563.0703,2.02886977819,-7.04334424948,0,0,
2440,2440,1.2200000,160039,1220,19980.6621,26565.3535,1.84211413522,-0.70644869547,0,0,
2441,2441,1.2205000,160039,1220,19978.2559,26568.2402,0.874115165588,6.18287629157,0,0,
2442,2442,1.2210000,160040,1221,19980.7812,26565.8359,3.38848425288,6.09915160672,0,0,
2443,2443,1.2215000,160040,1221,19977.7754,26568.8379,1.70057065908,8.85902321086,0,0,
2444,2444,1.2220000,160041,1222,19976.9355,26565.4746,2.07533262392,6.68094713222,0,0,
2445,2445,1.2225000,160041,1222,19975.6113,26560.9062,0.806232355186,4.711828295,0,0,
2446,2446,1.2230000,160042,1223,19972.8477,26562.709,-0.57158968963,11.1626717707,0,0,
2447,2447,1.2235000,160042,1223,19975.8535,26560.7871,1.32928990428,11.9476417677,0,0,
2448,2448,1.2240000,160043,1224,19975.7324,26561.748,2.09508588969,11.3904058686,0,0,
2449,2449,1.2245000,160043,1224,19972.0059,26565.8359,0.734400432877,12.540359999,0,0,
2450,2450,1.2250000,160044,1225,19972.0059,26564.873,3.04695747888,8.31346397637,0,0,
2451,2451,1.2255000,160044,1225,19967.0781,26564.752,1.14898285901,6.45814804739,0,0,
2452,2452,1.2260000,160045,1226,19968.0391,26565.8359,3.72047327316,9.50493896857,0,0,
2453,2453,1.2265000,160045,1226,19966.959,26565.2344,2.28661982554,12.2156883597,0,0,
2454,2454,1.2270000,160046,1227,19966.1152,26567.1562,2.13817677107,15.7010169408,0,0,
2455,2455,1.2275000,160046,1227,19962.8711,26568.1191,-0.94593693289,17.1048230239,0,0,
2456,2456,1.2280000,160047,1228,19962.9902,26571.2441,-0.765211275984,17.0917009742,0,0,
2457,2457,1.2285000,160047,1228,19965.7559,26566.3145,3.13028824433,11.4741878921,0,0,
2458,2458,1.2290000,160048,1229,19963.3516,26557.6621,2.47019961025,3.9547997309,0,0,
2459,2459,1.2295000,160048,1229,19960.707,26552.6113,1.24873974495,0.520309201575,0,0,
2460,2460,1.2300000,160049,1230,19961.5488,26551.0488,1.52059773952,0.0781812227299,0,0,
2461,2461,1.2305000,160049,1230,19959.7461,26554.2949,-0.535326939772,6.04417854415,0,0,
2462,2462,1.2310000,160050,1231,19961.3086,26551.2891,1.79075656566,3.60670398169,0,0,
2463,2463,1.2315000,160050,1231,19959.0254,26550.4473,-0.458339147611,2.67108661643,0,0,
2464,2464,1.2320000,160051,1232,19957.582,26554.5371,-1.38124081581,7.85283666651,0,0,
2465,2465,1.2325000,160051,1232,19959.1445,26554.7754,0.931341998817,8.9478180601,0,0,
2466,2466,1.2330000,160052,1233,19958.6641,26553.2129,1.42141588722,7.98513542596,0,0,
2467,2467,1.2335000,160052,1233,19956.7402,26551.2891,-0.0235252208023,2.97113467332,0,0,
2468,2468,1.2340000,160053,1234,19956.0195,26551.2891,-0.839646174161,-0.578378549038,0,0,
2469,2469,1.2345000,160053,1234,19953.9746,26551.4121,-1.32069278214,-0.888634650182,0,0,
2470,2470,1.2350000,160054,1235,19955.2988,26546.9629,-0.267621649981,-3.29331446032,0,0,
2471,2471,1.2355000,160054,1235,19953.9746,26539.0293,0.454569872402,-6.99429015487,0,0,
2472,2472,1.2360000,160055,1236,19951.8125,26539.9922,-0.19674876524,-3.20770649023,0,0,
2473,2473,1.2365000,160055,1236,19948.4473,26540.834,-3.9985852326,-0.138731549399,0,0,
2474,2474,1.2370000,160056,1237,19945.6816,26544.0781,-5.45810978303,4.97904080784,0,0,
2475,2475,1.2375000,160056,1237,19943.2773,26543.1172,-5.99315927394,4.8683591445,0,0,
2476,2476,1.2380000,160057,1238,19943.8789,26538.6699,-2.91769850282,0.345094513907,0,0,
2477,2477,1.2385000,160057,1238,19944.4805,26541.0723,-0.555564169301,2.78867789865,0,0,
2478,2478,1.2390000,160058,1239,19942.3164,26539.1484,-0.828524541738,-1.29453174605,0,0,
2479,2479,1.2395000,160058,1239,19940.0332,26537.9473,-1.3839350757,-0.555875469052,0,0,
2480,2480,1.2400000,160059,1240,19938.3496,26537.709,-2.0191947409,1.43757394049,0,0,
2481,2481,1.2405000,160059,1240,19933.0605,26535.3027,-4.47638720609,2.13783624895,0,0,
2482,2482,1.2410000,160060,1241,19933.1816,26535.5449,-3.34821284545,4.61457983866,0,0,
2483,2483,1.2415000,160060,1241,19931.7383,26534.5801,-2.07523543744,3.46811517866,0,0,
2484,2484,1.2420000,160061,1242,19933.7812,26531.9375,1.46356865713,2.82538702764,0,0,
2485,2485,1.2425000,160061,1242,19933.9023,26533.8613,1.90954890298,6.75818603861,0,0,
2486,2486,1.2430000,160062,1243,19932.5801,26534.4609,1.95667085037,9.96915179083,0,0,
2487,2487,1.2435000,160062,1243,19930.5371,26536.5059,-0.886547250248,13.0923532375,0,0,
2488,2488,1.2440000,160063,1244,19928.9746,26538.0684,-0.831933394634,11.7648447708,0,0,
2489,2489,1.2445000,160063,1244,19929.2129,26535.1816,2.04861637481,5.69297848637,0,0,
2490,2490,1.2450000,160064,1245,19929.2129,26532.1777,3.85613489121,0.648748259845,0,0,
2491,2491,1.2455000,160064,1245,19926.6895,26527.6094,4.22693232613,-4.11764270058,0,0,
2492,2492,1.2460000,160065,1246,19924.7676,26529.0527,3.45745409481,-0.398273590035,0,0,
2493,2493,1.2465000,160065,1246,19925.248,26527.1309,3.61561957928,1.49335544699,0,0,
2494,2494,1.2470000,160066,1247,19924.8867,26529.5332,3.62951588944,5.55766904416,0,0,
2495,2495,1.2475000,160066,1247,19921.7617,26527.3691,0.938742107832,4.83805769732,0,0,
2496,2496,1.2480000,160067,1248,19919.1172,26523.6426,-1.47650770934,0.425536301763,0,0,
2497,2497,1.2485000,160067,1248,19922.4824,26521.2402,2.27903381224,0.141587876728,0,0,
2498,2498,1.2490000,160068,1249,19919.959,26518.3535,1.6935167742,0.222970328016,0,0,
2499,2499,1.2495000,160068,1249,19921.5215,26518.5957,4.14778245021,1.94942157959,0,0,
2500,2500,1.2500000,160069,1250,19923.5645,26521.7207,4.61440291618,4.55802256858,0,0,
2501,2501,1.2505000,160069,1250,19922.3613,26518.4746,2.60041550405,2.47401440036,0,0,
2502,2502,1.2510000,160070,1251,19915.9922,26519.4375,-2.81221736113,3.38940274097,0,0,
2503,2503,1.2515000,160070,1251,19916.4727,26518.8359,-1.76797536544,1.79522261004,0,0,
2504,2504,1.2520000,160071,1252,19917.7949,26517.5137,-0.218115560073,0.552526478855,0,0,
2505,2505,1.2525000,160071,1252,19914.1895,26515.5918,-2.97263713179,-0.293799288278,0,0,
2506,2506,1.2530000,160072,1253,19915.5117,26511.3828,-0.609469428681,-2.81635942711,0,0,
2507,2507,1.2535000,160072,1253,19917.916,26510.3027,1.87529581955,-5.35140597404,0,0,
2508,2508,1.2540000,160073,1254,19916.4727,26508.6172,0.0185672497447,-9.01204391646,0,0,
2509,2509,1.2545000,160073,1254,19918.3965,26505.0137,2.40203528478,-11.5208430744,0,0,
2510,2510,1.2550000,160074,1255,19917.3145,26499.9629,0.228729873584,-12.6281925911,0,0,
2511,2511,1.2555000,160074,1255,19918.0352,26497.9199,1.92362010287,-9.59933100838,0,0,
2512,2512,1.2560000,160075,1256,19919.2363,26502.4863,3.29756840849,-3.64953397393,0,0,
2513,2513,1.2565000,160075,1256,19917.6738,26503.6895,0.421962218297,-1.54580296758,0,0,
2514,2514,1.2570000,160076,1257,19915.1504,26500.6855,-2.00030847498,-3.15122126168,0,0,
2515,2515,1.2575000,160076,1257,19916.7129,26497.0781,-0.545656405075,-4.86736916169,0,0,
2516,2516,1.2580000,160077,1258,19918.6367,26493.7129,1.13261146676,-6.6968891076,0,0,
2517,2517,1.2585000,160077,1258,19920.5605,26491.0684,2.25089746768,-8.21783753307,0,0,
2518,2518,1.2590000,160078,1259,19917.0742,26490.8281,-0.841234836932,-8.7067811371,0,0,
2519,2519,1.2595000,160078,1259,19920.5605,26490.3457,2.03715006866,-6.59943768073,0,0,
2520,2520,1.2600000,160079,1260,19924.5254,26491.4297,3.9487481759,-3.25450356623,0,0,
2521,2521,1.2605000,160079,1260,19926.4492,26492.1504,4.97972143429,0.187025194866,0,0,
2522,2522,1.2610000,160080,1261,19918.3965,26502.0078,-4.40181278117,9.65617900419,0,0,
2523,2523,1.2615000,160080,1261,19915.9922,26507.6562,-5.92749474392,12.1440715629,0,0,
2524,2524,1.2620000,160081,1262,19909.8613,26510.3027,-10.986472054,13.0016672178,0,0,
2525,2525,1.2625000,160081,1262,19914.0684,26505.0137,-6.94430659466,6.821725419,0,0,
2526,2526,1.2630000,160082,1263,19914.0684,26500.2031,-6.08721121764,3.18484492389,0,0,
2527,2527,1.2635000,160082,1263,19910.4629,26504.8926,-9.94101431034,7.14594895222,0,0,
2528,2528,1.2640000,160083,1264,19907.457,26512.7051,-10.9644889321,10.1158648988,0,0,
2529,2529,1.2645000,160083,1264,19901.6875,26508.6172,-13.052399119,2.37086103275,0,0,
2530,2530,1.2650000,160084,1265,19906.0156,26486.0215,-6.55187789842,-18.8810226504,0,0,
2531,2531,1.2655000,160084,1265,19910.9434,26471.7168,0.497442317736,-28.3075757104,0,0,
2532,2532,1.2660000,160085,1266,19911.4238,26472.1973,1.28628542145,-22.376215281,0,0,
2533,2533,1.2665000,160085,1266,19913.1074,26481.4531,1.5835297965,-8.30360992623,0,0,
2534,2534,1.2670000,160086,1267,19909.1406,26487.4629,-2.12854410795,-0.902792155133,0,0,
2535,2535,1.2675000,160086,1267,19913.5879,26481.4531,1.83063336671,-4.04433381368,0,0,
2536,2536,1.2680000,160087,1268,19911.6641,26482.4141,-0.734799825989,-2.60435823877,0,0,
2537,2537,1.2685000,160087,1268,19914.1895,26490.709,0.463097428029,6.03679067624,0,0,
2538,2538,1.2690000,160088,1269,19913.4668,26502.3672,0.706861369405,16.1846680619,0,0,
2539,2539,1.2695000,160088,1269,19907.5781,26522.9219,-4.20598577232,29.9331085487,0,0,
2540,2540,1.2700000,160089,1270,19902.7695,26523.6426,-8.70408677514,22.9989212425,0,0,
2541,2541,1.2705000,160089,1270,19906.1348,26505.0137,-4.74043199349,3.13855962578,0,0,
2542,2542,1.2710000,160090,1271,19911.4238,26481.5723,1.31862865933,-18.1654347044,0,0,
2543,2543,1.2715000,160090,1271,19907.6973,26476.0449,-2.32008551231,-21.1201257277,0,0,
2544,2544,1.2720000,160091,1272,19906.4961,26483.2559,-3.25669422995,-12.2213676765,0,0,
2545,2545,1.2725000,160091,1272,19901.6875,26492.5098,-6.00919007803,-2.59784308829,0,0,
2546,2546,1.2730000,160092,1273,19899.2832,26508.9785,-6.46857252071,11.3334501838,0,0,
2547,2547,1.2735000,160092,1273,19898.082,26513.1855,-6.07053686046,9.4030159474,0,0,
2548,2548,1.2740000,160093,1274,19899.6445,26515.1094,-3.24249518761,4.85305349562,0,0,
2549,2549,1.2745000,160093,1274,19898.5625,26507.0547,-2.54989393791,-5.28808635745,0,0,
2550,2550,1.2750000,160094,1275,19898.6816,26501.8887,-1.64803879894,-9.40437968277,0,0,
2551,2551,1.2755000,160094,1275,19900.9668,26503.209,2.27548141671,-6.90911798136,0,0,
2552,2552,1.2760000,160095,1276,19903.25,26505.9746,5.17026993669,-6.38229671025,0,0,
2553,2553,1.2765000,160095,1276,19905.7754,26496.5996,6.83606248004,-15.1839378734,0,0,
2554,2554,1.2770000,160096,1277,19904.5723,26491.1895,5.86123562549,-18.0953887738,0,0,
2555,2555,1.2775000,160096,1277,19901.4473,26491.1895,2.92741655097,-15.6694347709,0,0,
2556,2556,1.2780000,160097,1278,19897.1191,26495.7578,-0.219221322761,-10.3917269164,0,0,
2557,2557,1.2785000,160097,1278,19896.6387,26499.2422,0.332126363321,-7.56916706837,0,0,
2558,2558,1.2790000,160098,1279,19893.6348,26505.0137,0.105962487297,-4.81740528948,0,0,
2559,2559,1.2795000,160098,1279,19894.2363,26514.748,1.62460184316,2.69681458399,0,0,
2560,2560,1.2800000,160099,1280,19893.5137,26520.2793,1.2405235686,5.20375070324,0,0,
2561,2561,1.2805000,160099,1280,19896.6387,26517.1543,5.48581810115,0.934032766391,0,0,
2562,2562,1.2810000,160100,1281,19892.3125,26525.8066,2.95678858593,4.89891872578,0,0,
2563,2563,1.2815000,160100,1281,19890.8691,26525.8066,3.53114513236,0.449112764823,0,0,
2564,2564,1.2820000,160101,1282,19890.8691,26523.041,5.11011174415,-3.68056820389,0,0,
2565,2565,1.2825000,160101,1282,19892.1914,26509.0996,5.45077472347,-14.7858097563,0,0,
2566,2566,1.2830000,160102,1283,19886.6621,26499.123,1.61933954957,-19.3965589618,0,0,
2567,2567,1.2835000,160102,1283,19891.9512,26496.2363,6.55199359522,-19.0409136947,0,0,
2568,2568,1.2840000,160103,1284,19891.1094,26498.4004,6.58417316654,-16.7484090545,0,0,
2569,2569,1.2845000,160103,1284,19888.1055,26505.252,5.88711737387,-8.94390156554,0,0,
2570,2570,1.2850000,160104,1285,19885.8223,26506.9355,4.04661229834,-3.48130315505,0,0,
2571,2571,1.2855000,160104,1285,19887.8652,26509.0996,6.91290355998,0.654425695093,0,0,
2572,2572,1.2860000,160105,1286,19891.9512,26509.3379,10.5031963585,0.954090715841,0,0,
2573,2573,1.2865000,160105,1286,19889.5469,26505.8535,6.79743518103,-1.70773209001,0,0,
2574,2574,1.2870000,160106,1287,19888.1055,26502.7285,5.94224953826,-4.01394359368,0,0,
2575,2575,1.2875000,160106,1287,19886.0605,26499.6035,3.41058781884,-3.19964887533,0,0,
2576,2576,1.2880000,160107,1288,19886.4219,26505.252,3.87211817594,2.22814643212,0,0,
2577,2577,1.2885000,160107,1288,19888.3457,26503.8105,4.45933712705,1.01792961837,0,0,
2578,2578,1.2890000,160108,1289,19890.0293,26505.6113,6.72726414355,2.76239461997,0,0,
2579,2579,1.2895000,160108,1289,19892.3125,26501.6465,9.01977599404,-2.7646310265,0,0,
2580,2580,1.2900000,160109,1290,19893.9941,26499.9629,8.81727621318,-2.90087649793,0,0,
2581,2581,1.2905000,160109,1290,19895.5566,26499.6035,7.66040899532,3.01088880307,0,0,
2582,2582,1.2910000,160110,1291,19895.3164,26500.3262,5.73667154221,8.57078666725,0,0,
2583,2583,1.2915000,160110,1291,19894.5957,26502.9688,4.13763754441,11.2696805572,0,0,
2584,2584,1.2920000,160111,1292,19899.8848,26499.9629,7.04566414909,7.30942282344,0,0,
2585,2585,1.2925000,160111,1292,19897.3613,26503.6895,4.11782375778,9.78498249647,0,0,
2586,2586,1.2930000,160112,1293,19895.3164,26512.4629,1.3160337996,14.9801336629,0,0,
2587,2587,1.2935000,160112,1293,19893.7539,26516.791,-1.16520013152,15.1463116474,0,0,
2588,2588,1.2940000,160113,1294,19891.8301,26512.5859,-3.89437068739,7.97351539242,0,0,
2589,2589,1.2945000,160113,1294,19891.2305,26507.7754,-4.26968762471,4.78354586455,0,0,
2590,2590,1.2950000,160114,1295,19891.2305,26504.6504,-4.8860776529,4.54912139097,0,0,
2591,2591,1.2955000,160114,1295,19891.4707,26501.4062,-4.4674629313,3.680315241,0,0,
2592,2592,1.2960000,160115,1296,19893.875,26499.9629,-2.61813293017,2.16654745869,0,0,
2593,2593,1.2965000,160115,1296,19897.3613,26501.4062,-0.995875931915,5.82013623698,0,0,
2594,2594,1.2970000,160116,1297,19897.5996,26502.9688,-1.16586307208,8.85137563961,0,0,
2595,2595,1.2975000,160116,1297,19896.8809,26505.373,-2.26877057469,11.1450587688,0,0,
2596,2596,1.2980000,160117,1298,19895.4375,26503.4512,-3.45636853297,8.18476533013,0,0,
2597,2597,1.2985000,160117,1298,19893.3926,26505.0137,-5.6303741506,8.19135421148,0,0,
2598,2598,1.2990000,160118,1299,19895.3164,26506.2129,-2.71910341365,6.31622747562,0,0,
2599,2599,1.2995000,160118,1299,19893.0332,26512.1035,-5.41740389188,9.55707271151,0,0,
2600,2600,1.3000000,160119,1300,19895.6777,26512.9453,-3.8503123128,8.66154153193,0,0,
2601,2601,1.3005000,160119,1300,19898.2012,26512.7051,-2.22090504906,9.085327464,0,0,
2602,2602,1.3010000,160120,1301,19897.5996,26510.0605,-2.17761727793,3.85532963606,0,0,
2603,2603,1.3015000,160120,1301,19894.3555,26505.252,-4.58031896684,-1.06708097545,0,0,
2604,2604,1.3020000,160121,1302,19895.0762,26507.1777,-3.59415521666,2.35122984922,0,0,
2605,2605,1.3025000,160121,1302,19892.1914,26508.8594,-7.49848181023,7.72548970353,0,0,
2606,2606,1.3030000,160122,1303,19894.4746,26507.1777,-4.12245023956,9.28163610995,0,0,
2607,2607,1.3035000,160122,1303,19896.0371,26500.8047,-4.34716812193,3.83869066036,0,0,
2608,2608,1.3040000,160123,1304,19893.3926,26504.5312,-6.03929869435,4.77172388071,0,0,
2609,2609,1.3045000,160123,1304,19890.75,26512.3438,-6.11659455647,9.4170977676,0,0,
2610,2610,1.3050000,160124,1305,19897.3613,26513.9062,-0.211232558654,11.2741066614,0,0,
2611,2611,1.3055000,160124,1305,19901.6875,26512.3438,2.63726753067,9.32575458836,0,0,
2612,2612,1.3060000,160125,1306,19901.3262,26514.9902,0.487679952392,10.0437896657,0,0,
2613,2613,1.3065000,160125,1306,19898.3223,26513.4277,-3.32131498689,7.64034710091,0,0,
2614,2614,1.3070000,160126,1307,19895.918,26513.5469,-4.89141369911,6.34462038986,0,0,
2615,2615,1.3075000,160126,1307,19892.9121,26516.3125,-7.49514565778,9.22559863922,0,0,
2616,2616,1.3080000,160127,1308,19894.4746,26519.0762,-5.71139994281,7.87033710505,0,0,
2617,2617,1.3085000,160127,1308,19893.875,26517.0312,-6.97167448291,3.87384906822,0,0,
2618,2618,1.3090000,160128,1309,19898.4434,26514.1484,-2.01927306927,-0.724153601409,0,0,
2619,2619,1.3095000,160128,1309,19897.3613,26515.2285,-2.56728819255,-2.2518761071,0,0,
2620,2620,1.3100000,160129,1310,19898.6816,26514.2676,-2.02400744485,-3.75518047622,0,0,
2621,2621,1.3105000,160129,1310,19901.0879,26514.1484,-1.21505996772,-0.766379332827,0,0,
2622,2622,1.3110000,160130,1311,19901.0879,26518.7168,-1.6710471304,5.00065747302,0,0,
2623,2623,1.3115000,160130,1311,19897.4805,26521.7207,-4.43623879615,5.20188300737,0,0,
2624,2624,1.3120000,160131,1312,19898.5625,26521.9609,-4.17853113845,2.61779403627,0,0,
2625,2625,1.3125000,160131,1312,19900.0059,26522.8027,-1.3143045573,-0.104429246767,0,0,
2626,2626,1.3130000,160132,1313,19898.8027,26520.0371,-1.71328302838,-6.82787612532,0,0,
2627,2627,1.3135000,160132,1313,19899.1641,26520.0371,-1.20241945265,-9.50094697434,0,0,
2628,2628,1.3140000,160133,1314,19904.0918,26520.5176,2.68770948262,-10.0163318731,0,0,
2629,2629,1.3145000,160133,1314,19904.4512,26523.6426,2.48765967965,-5.67124415745,0,0,
2630,2630,1.3150000,160134,1315,19904.8125,26529.8926,1.56025058552,0.785802311244,0,0,
2631,2631,1.3155000,160134,1315,19900.6055,26536.0234,-2.35691176278,5.24021906866,0,0,
2632,2632,1.3160000,160135,1316,19898.4434,26537.2266,-4.33399263136,2.43842145823,0,0,
2633,2633,1.3165000,160135,1316,19898.9238,26532.4199,-4.41517798142,-3.39759607878,0,0,
2634,2634,1.3170000,160136,1317,19902.168,26527.8516,-0.630956365571,-8.03639311758,0,0,
2635,2635,1.3175000,160136,1317,19905.2949,26526.7676,2.42548937644,-9.71624951671,0,0,
2636,2636,1.3180000,160137,1318,19902.2891,26523.041,0.31579093188,-13.4121913173,0,0,
2637,2637,1.3185000,160137,1318,19903.8516,26527.7324,1.86405660151,-10.3463462798,0,0,
2638,2638,1.3190000,160138,1319,19904.2129,26529.2949,2.63591526275,-11.4878477143,0,0,
2639,2639,1.3195000,160138,1319,19902.5293,26530.7344,1.00059923123,-12.3786037805,0,0,
2640,2640,1.3200000,160139,1320,19899.1641,26530.9766,-2.66053741806,-12.5635790745,0,0,
2641,2641,1.3205000,160139,1320,19902.4082,26530.2559,0.216506291629,-11.4807368455,0,0,
2642,2642,1.3210000,160140,1321,19905.2949,26535.5449,3.82677813189,-8.03952167483,0,0,
2643,2643,1.3215000,160140,1321,19901.8086,26535.6641,1.78759895976,-8.18141436065,0,0,
2644,2644,1.3220000,160141,1322,19906.1348,26533.2598,5.56931746988,-9.86759342369,0,0,
2645,2645,1.3225000,160141,1322,19909.0195,26534.9434,6.54626477889,-5.52988529183,0,0,
2646,2646,1.3230000,160142,1323,19910.3418,26533.5,6.93258154073,-3.92469458788,0,0,
2647,2647,1.3235000,160142,1323,19905.2949,26535.1816,0.230690712048,-1.53583633999,0,0,
2648,2648,1.3240000,160143,1324,19903.0098,26534.7031,-0.743322352855,-5.26209861272,0,0,
2649,2649,1.3245000,160143,1324,19902.8887,26536.7441,1.23060034049,-6.31540269181,0,0,
2650,2650,1.3250000,160144,1325,19903.7324,26542.998,0.841509575904,-0.0132692902607,0,0,
2651,2651,1.3255000,160144,1325,19901.9277,26540.7129,-1.21861073453,-1.91136792945,0,0,
2652,2652,1.3260000,160145,1326,19905.4141,26538.3066,1.77827135192,-4.95070244036,0,0,
2653,2653,1.3265000,160145,1326,19902.6504,26543.4766,-0.316353000553,-0.0296897661498,0,0,
2654,2654,1.3270000,160146,1327,19899.043,26546.8438,-1.93757521187,1.7454327274,0,0,
2655,2655,1.3275000,160146,1327,19896.7598,26548.5254,-2.71255630804,2.87445300947,0,0,
2656,2656,1.3280000,160147,1328,19899.5254,26558.8613,0.153258701638,7.93050808573,0,0,
2657,2657,1.3285000,160147,1328,19900.6055,26564.5137,0.68004213315,9.75710936619,0,0,
2658,2658,1.3290000,160148,1329,19898.082,26568.5996,-1.26464992964,9.40168054962,0,0,
2659,2659,1.3295000,160148,1329,19895.918,26569.2012,-1.52402936774,4.63229634842,0,0,
2660,2660,1.3300000,160149,1330,19906.2559,26565.8359,7.24747277538,-1.11750591727,0,0,
2661,2661,1.3305000,160149,1330,19902.7695,26565.9551,2.47600279281,-0.325080333603,0,0,
2662,2662,1.3310000,160150,1331,19904.8125,26564.1504,4.14193209451,-2.35071976979,0,0,
2663,2663,1.3315000,160150,1331,19905.5332,26565.3535,5.35648231171,-3.69597221778,0,0,
2664,2664,1.3320000,160151,1332,19904.4512,26562.709,2.94285397254,-7.65814443575,0,0,
2665,2665,1.3325000,160151,1332,19902.7695,26562.3496,2.25212062786,-9.76654431543,0,0,
2666,2666,1.3330000,160152,1333,19900.2441,26561.3887,0.963915632574,-12.3983711736,0,0,
2667,2667,1.3335000,160152,1333,19899.2832,26556.2188,0.572129021962,-17.7427595235,0,0,
2668,2668,1.3340000,160153,1334,19898.082,26550.3281,-0.846961102706,-21.4052808863,0,0,
2669,2669,1.3345000,160153,1334,19900.9668,26549.248,2.4252240073,-18.4232817275,0,0,
2670,2670,1.3350000,160154,1335,19904.4512,26553.334,4.94795408735,-11.5905175128,0,0,
2671,2671,1.3355000,160154,1335,19905.1738,26564.1504,5.85441063055,-0.743632360118,0,0,
2672,2672,1.3360000,160155,1336,19900.125,26573.6484,1.07654424154,6.09503479587,0,0,
2673,2673,1.3365000,160155,1336,19898.5625,26584.8262,-0.972480869214,15.0405833339,0,0,
2674,2674,1.3370000,160156,1337,19891.3496,26589.5156,-6.38107472238,16.6728174291,0,0,
2675,2675,1.3375000,160156,1337,19891.9512,26583.3848,-4.2023596857,7.78283595302,0,0,
2676,2676,1.3380000,160157,1338,19892.0723,26573.0469,-1.39293947928,-2.66234192228,0,0,
2677,2677,1.3385000,160157,1338,19893.875,26562.4688,1.17325581143,-13.2449579685,0,0,
2678,2678,1.3390000,160158,1339,19891.8301,26557.4199,0.751936035934,-17.386086952,0,0,
2679,2679,1.3395000,160158,1339,19894.8359,26546.9629,4.37487342559,-24.5949097175,0,0,
2680,2680,1.3400000,160159,1340,19892.9121,26532.8984,2.74130351787,-31.3871323854,0,0,
2681,2681,1.3405000,160159,1340,19892.0723,26541.9141,1.51328934657,-15.8129973793,0,0,
2682,2682,1.3410000,160160,1341,19894.5957,26558.9844,4.52488546832,0.814502106931,0,0,
2683,2683,1.3415000,160160,1341,19891.5918,26562.5879,3.65823254133,5.32050836266,0,0,
2684,2684,1.3420000,160161,1342,19887.7441,26571.123,0.250135959925,13.7274697624,0,0,
2685,2685,1.3425000,160161,1342,19888.5859,26576.291,0.884321234212,18.8288744261,0,0,
2686,2686,1.3430000,160162,1343,19890.1484,26574.3691,3.00122218929,18.0015969529,0,0,
2687,2687,1.3435000,160162,1343,19895.5566,26573.166,7.39595015319,16.0571297178,0,0,
2688,2688,1.3440000,160163,1344,19896.6387,26582.7832,8.57100622945,20.2969793672,0,0,
2689,2689,1.3445000,160163,1344,19898.6816,26592.3984,10.5214953386,22.8906640273,0,0,
2690,2690,1.3450000,160164,1345,19900.2441,26593.1191,9.10939792836,19.6791259601,0,0,
2691,2691,1.3455000,160164,1345,19896.1582,26585.4277,3.93128031155,11.3723559248,0,0,
2692,2692,1.3460000,160165,1346,19892.6738,26587.7109,-0.479336424789,11.4573627925,0,0,
2693,2693,1.3465000,160165,1346,19890.9902,26589.2734,-1.16536184165,10.4754921821,0,0,
2694,2694,1.3470000,160166,1347,19890.2676,26588.1934,-0.276778961528,7.13298416482,0,0,
2695,2695,1.3475000,160166,1347,19890.1484,26581.1016,0.162939465646,0.67685442759,0,0,
2696,2696,1.3480000,160167,1348,19894.8359,26566.5547,2.95221803481,-14.0718918805,0,0,
2697,2697,1.3485000,160167,1348,19896.0371,26561.9863,2.16496194685,-15.376817917,0,0,
2698,2698,1.3490000,160168,1349,19895.0762,26558.3828,0.658606679876,-15.2177072598,0,0,
2699,2699,1.3495000,160168,1349,19890.8691,26566.5547,-2.57623668793,-5.72363114444,0,0,
2700,2700,1.3500000,160169,1350,19881.7344,26589.6348,-12.1615537131,15.9712924629,0,0,
2701,2701,1.3505000,160169,1350,19878.7285,26616.4395,-12.9496912928,37.7437543478,0,0,
2702,2702,1.3510000,160170,1351,19876.6855,26639.3984,-12.6663365079,50.9239381129,0,0,
2703,2703,1.3515000,160170,1351,19876.3262,26645.6484,-9.86251351392,44.8376027425,0,0,
2704,2704,1.3520000,160171,1352,19875.3633,26636.0332,-9.10673974484,26.9796993798,0,0,
2705,2705,1.3525000,160171,1352,19878.7285,26619.8047,-3.34591016906,5.57260893745,0,0,
2706,2706,1.3530000,160172,1353,19884.0176,26614.0371,2.99598008187,-3.8387099712,0,0,
2707,2707,1.3535000,160172,1353,19882.2148,26610.3105,1.54688867001,-9.17079345555,0,0,
2708,2708,1.3540000,160173,1354,19884.8594,26602.9766,3.20593289949,-15.4982304306,0,0,
2709,2709,1.3545000,160173,1354,19892.5527,26592.5215,8.68910199861,-22.4145037277,0,0,
2710,2710,1.3550000,160174,1355,19891.9512,26583.2637,5.64204828818,-27.6040978101,0,0,
2711,2711,1.3555000,160174,1355,19890.6289,26577.375,3.8336924599,-29.9465579934,0,0,
2712,2712,1.3560000,160175,1356,19889.1855,26570.7637,2.48673882764,-32.3089324906,0,0,
2713,2713,1.3565000,160175,1356,19886.9023,26572.3262,-0.769770423449,-25.4882660272,0,0,
2714,2714,1.3570000,160176,1357,19886.6621,26576.291,-0.274591212291,-16.4665698682,0,0,
2715,2715,1.3575000,160176,1357,19882.9355,26581.2207,-3.97733363779,-7.15827307592,0,0,
2716,2716,1.3580000,160177,1358,19881.8535,26592.0391,-3.68329165516,6.19432284321,0,0,
2717,2717,1.3585000,160177,1358,19886.541,26599.8516,0.0409580625335,12.8713702777,0,0,
2718,2718,1.3590000,160178,1359,19884.6191,26611.9922,-1.2508169302,20.3106032875,0,0,
2719,2719,1.3595000,160178,1359,19883.416,26616.4395,-2.69070786894,20.6562352546,0,0,
2720,2720,1.3600000,160179,1360,19884.2578,26617.5215,-1.82325770581,19.4405104257,0,0,
2721,2721,1.3605000,160179,1360,19881.373,26622.3301,-4.94589321745,18.5701752591,0,0,
2722,2722,1.3610000,160180,1361,19874.7637,26630.3828,-9.94418915129,16.4372674187,0,0,
2723,2723,1.3615000,160180,1361,19874.2812,26639.2793,-6.99113037441,18.6451920265,0,0,
2724,2724,1.3620000,160181,1362,19873.4395,26643.2441,-6.24366811921,15.7344335685,0,0,
2725,2725,1.3625000,160181,1362,19871.0371,26638.5566,-7.91125724242,7.44733791044,0,0,
2726,2726,1.3630000,160182,1363,19871.3965,26638.6777,-6.19481144436,6.3194389851,0,0,
2727,2727,1.3635000,160182,1363,19873.0801,26643.9668,-4.55529179243,7.85889953903,0,0,
2728,2728,1.3640000,160183,1364,19874.5215,26646.6113,-1.62537833569,2.68694093432,0,0,
2729,2729,1.3645000,160183,1364,19870.5566,26648.1738,-3.42265686995,-2.99279529044,0,0,
2730,2730,1.3650000,160184,1365,19873.9199,26642.2832,-0.691870040363,-10.4399835401,0,0,
2731,2731,1.3655000,160184,1365,19872.5996,26635.1934,-0.742520556489,-14.8767938348,0,0,
2732,2732,1.3660000,160185,1366,19869.7129,26631.5859,-2.60646606839,-18.0105627452,0,0,
2733,2733,1.3665000,160185,1366,19872.4785,26611.0312,1.36333353497,-34.0522477613,0,0,
2734,2734,1.3670000,160186,1367,19871.7578,26597.4473,2.1195420171,-40.4944654488,0,0,
2735,2735,1.3675000,160186,1367,19868.9922,26594.4434,0.37601701765,-34.431231344,0,0,
2736,2736,1.3680000,160187,1368,19866.2285,26607.4238,-2.90871349095,-17.5956679133,0,0,
2737,2737,1.3685000,160187,1368,19865.748,26613.4355,-3.14350796499,-9.19221492966,0,0,
2738,2738,1.3690000,160188,1369,19865.9883,26609.4688,-1.53200317125,-10.3657694525,0,0,
2739,2739,1.3695000,160188,1369,19863.3438,26612.4746,-1.4319978782,-7.7773752676,0,0,
2740,2740,1.3700000,160189,1370,19858.7754,26612.9531,-4.41863045333,-8.48808861357,0,0,
2741,2741,1.3705000,160189,1370,19859.377,26623.8926,-2.11259712142,0.268911993849,0,0,
2742,2742,1.3710000,160190,1371,19861.541,26626.2969,0.86050912993,0.774304879236,0,0,
2743,2743,1.3715000,160190,1371,19859.4961,26631.3438,0.396014072335,4.43265182423,0,0,
2744,2744,1.3720000,160191,1372,19858.1738,26633.9902,-0.214533404147,8.71822268211,0,0,
2745,2745,1.3725000,160191,1372,19859.6172,26631.5859,2.04336625608,8.27649097275,0,0,
2746,2746,1.3730000,160192,1373,19858.7754,26622.2109,1.78239494448,0.222776692968,0,0,
2747,2747,1.3735000,160192,1373,19858.416,26616.2012,2.52447093898,-3.26006811075,0,0,
2748,2748,1.3740000,160193,1374,19855.2891,26614.7578,-0.413407321457,-0.968021152025,0,0,
2749,2749,1.3745000,160193,1374,19854.8086,26620.5254,-1.28392363881,7.71244160987,0,0,
2750,2750,1.3750000,160194,1375,19856.6113,26631.2246,0.8461939696,17.6455785959,0,0,
2751,2751,1.3755000,160194,1375,19857.0918,26639.2793,2.74562223772,21.5587830224,0,0,
2752,2752,1.3760000,160195,1376,19850.9629,26642.7637,-0.767747845571,20.3595595839,0,0,
2753,2753,1.3765000,160195,1376,19850.002,26640,-0.327853202013,13.7805236495,0,0,
2754,2754,1.3770000,160196,1377,19852.7656,26635.5527,3.95573838056,7.27390343363,0,0,
2755,2755,1.3775000,160196,1377,19850.6016,26634.8301,2.99346783042,5.40686468171,0,0,
2756,2756,1.3780000,160197,1378,19849.6406,26635.791,3.63534044118,4.86889130412,0,0,
2757,2757,1.3785000,160197,1378,19848.3184,26631.2246,1.95199018491,-0.917966008423,0,0,
2758,2758,1.3790000,160198,1379,19848.3184,26624.373,3.63206466391,-9.09982016429,0,0,
2759,2759,1.3795000,160198,1379,19847.1152,26622.9297,3.11569579588,-9.14438029458,0,0,
2760,2760,1.3800000,160199,1380,19850.2402,26622.6895,6.13329864388,-6.18157328578,0,0,
2761,2761,1.3805000,160199,1380,19847.1152,26634.9512,3.41611867403,3.80785083287,0,0,
2762,2762,1.3810000,160200,1381,19839.0625,26647.4531,-1.79037618931,8.53300185843,0,0,
2763,2763,1.3815000,160200,1381,19841.707,26658.0312,3.19632161099,13.3542210244,0,0,
2764,2764,1.3820000,160201,1382,19840.0234,26662.1172,2.59695170797,12.3152767658,0,0,
2765,2765,1.3825000,160201,1382,19841.3457,26648.7734,3.88310761453,-0.271522634409,0,0,
2766,2766,1.3830000,160202,1383,19842.3066,26644.9277,4.6652949191,-2.02893564498,0,0,
2767,2767,1.3835000,160202,1383,19846.0332,26640.7207,6.49025595857,-5.73367307224,0,0,
2768,2768,1.3840000,160203,1384,19842.0684,26643.8457,3.0477845126,-5.44592479714,0,0,
2769,2769,1.3845000,160203,1384,19842.3066,26647.8125,4.62912635454,-4.61921178197,0,0,
2770,2770,1.3850000,160204,1385,19844.7129,26650.0957,4.91237046777,-1.44832560494,0,0,
2771,2771,1.3855000,160204,1385,19851.4434,26651.7793,10.4775521677,2.77726810198,0,0,
2772,2772,1.3860000,160205,1386,19847.4766,26652.2598,5.88939543588,2.53011168812,0,0,
2773,2773,1.3865000,160205,1386,19846.5137,26645.4082,4.21107797197,-0.973323629369,0,0,
2774,2774,1.3870000,160206,1387,19844.4707,26641.9219,2.74462157257,-2.06973112597,0,0,
2775,2775,1.3875000,160206,1387,19843.2695,26642.6426,1.93934729675,0.225132206113,0,0,
2776,2776,1.3880000,160207,1388,19844.832,26642.5234,1.91929182945,-2.58270335219,0,0,
2777,2777,1.3885000,160207,1388,19845.1934,26639.1582,0.851673695739,-6.23662787061,0,0,
2778,2778,1.3890000,160208,1389,19846.1543,26641.3223,1.17722456996,-3.10408943866,0,0,
2779,2779,1.3895000,160208,1389,19845.4336,26639.0391,1.31668358486,-7.17016061348,0,0,
2780,2780,1.3900000,160209,1390,19847.1152,26640.3594,2.3213490239,-7.80226285509,0,0,
2781,2781,1.3905000,160209,1390,19841.4668,26646.3691,-3.42068092055,-5.61330476298,0,0,
2782,2782,1.3910000,160210,1391,19835.4551,26653.4629,-8.77367589927,-1.28721010845,0,0,
2783,2783,1.3915000,160210,1391,19830.4082,26659.834,-11.0931470456,2.00794635487,0,0,
2784,2784,1.3920000,160211,1392,19827.1621,26658.75,-12.1369377697,1.5868160365,0,0,
2785,2785,1.3925000,160211,1392,19828.8457,26657.0684,-8.88058494384,1.75169526045,0,0,
2786,2786,1.3930000,160212,1393,19826.8027,26660.0723,-8.92773145259,5.14368057477,0,0,
2787,2787,1.3935000,160212,1393,19825.959,26657.4297,-7.47475844574,2.78371539103,0,0,
2788,2788,1.3940000,160213,1394,19820.0703,26658.2715,-10.8024288146,3.83460680746,0,0,
2789,2789,1.3945000,160213,1394,19820.5508,26651.1797,-9.11003921946,-2.29851620158,0,0,
2790,2790,1.3950000,160214,1395,19824.2773,26656.1074,-4.57758300249,0.878179982026,0,0,
2791,2791,1.3955000,160214,1395,19824.1582,26652.1406,-2.72321517995,-4.67840170093,0,0,
2792,2792,1.3960000,160215,1396,19827.2832,26640.6016,2.78150052835,-14.6502742336,0,0,
2793,2793,1.3965000,160215,1396,19827.8828,26626.416,3.52637119152,-23.6372847143,0,0,
2794,2794,1.3970000,160216,1397,19823.0762,26626.6562,-0.195209491926,-18.1384452353,0,0,
2795,2795,1.3975000,160216,1397,19828.2441,26624.8535,5.35811820306,-15.1454216007,0,0,
2796,2796,1.3980000,160217,1398,19826.4414,26631.7051,4.28659764308,-5.88314408703,0,0,
2797,2797,1.3985000,160217,1398,19826.9219,26635.1934,3.7526281649,-0.659647675833,0,0,
2798,2798,1.3990000,160218,1399,19825.8398,26641.9219,3.34278235345,5.27647553791,0,0,
2799,2799,1.3995000,160218,1399,19821.6328,26655.2656,-0.0565516506944,16.0456304595,0,0,
2800,2800,1.4000000,160219,1400,19823.7969,26661.5156,1.61446195164,19.9845821288,0,0,
2801,2801,1.4005000,160219,1400,19820.791,26658.3906,-0.218982117879,11.1047447135,0,0,
2802,2802,1.4010000,160220,1401,19819.3496,26659.1113,1.17119615279,4.08957289257,0,0,
2803,2803,1.4015000,160220,1401,19822.3535,26657.7891,4.47838982595,-0.75343473812,0,0,
2804,2804,1.4020000,160221,1402,19821.6328,26657.7891,3.89061271136,-1.99110157145,0,0,
2805,2805,1.4025000,160221,1402,19817.3066,26658.873,-0.56328394813,2.86818880532,0,0,
2806,2806,1.4030000,160222,1403,19820.0703,26659.5938,1.70609418526,5.48114423126,0,0,
2807,2807,1.4035000,160222,1403,19815.8633,26661.0332,-3.33559068768,6.53007038429,0,0,
2808,2808,1.4040000,160223,1404,19812.8574,26668.9688,-3.96997321503,9.10577034425,0,0,
2809,2809,1.4045000,160223,1404,19812.498,26670.4121,-2.14073937396,5.48714193201,0,0,
2810,2810,1.4050000,160224,1405,19815.0215,26666.9238,-0.75165913568,1.77596326183,0,0,
2811,2811,1.4055000,160224,1405,19815.9824,26664.5215,-0.0131271755261,1.42715442919,0,0,
2812,2812,1.4060000,160225,1406,19812.6172,26665.2422,-1.29810876685,1.75104410533,0,0,
2813,2813,1.4065000,160225,1406,19811.416,26664.2812,-1.24289147972,3.94107792002,0,0,
2814,2814,1.4070000,160226,1407,19811.2949,26658.6309,0.592322465483,0.48770316892,0,0,
2815,2815,1.4075000,160226,1407,19812.9785,26652.6191,3.22806464831,-3.48521178669,0,0,
2816,2816,1.4080000,160227,1408,19814.7812,26646.1309,3.73809445187,-10.0096559781,0,0,
2817,2817,1.4085000,160227,1408,19815.1426,26640.1191,3.12802992582,-13.1894400085,0,0,
2818,2818,1.4090000,160228,1409,19814.4199,26630.1426,2.22882959777,-18.3595139303,0,0,
2819,2819,1.4095000,160228,1409,19811.8965,26628.3418,1.34235988898,-17.2108581345,0,0,
2820,2820,1.4100000,160229,1410,19808.8926,26633.0293,-0.927924782969,-11.5569977707,0,0,
2821,2821,1.4105000,160229,1410,19806.6074,26642.7637,-1.36252652177,-4.38380305802,0,0,
2822,2822,1.4110000,160230,1411,19805.6465,26649.7363,-0.902310499524,0.415255587733,0,0,
2823,2823,1.4115000,160230,1411,19804.9238,26646.9707,0.395449345314,-3.06837278925,0,0,
2824,2824,1.4120000,160231,1412,19805.5254,26643.125,1.56668738507,-2.98055886628,0,0,
2825,2825,1.4125000,160231,1412,19807.9297,26636.0332,3.05297594101,-4.44034199016,0,0,
2826,2826,1.4130000,160232,1413,19806.6074,26631.3438,1.93997532655,-4.6099810708,0,0,
2827,2827,1.4135000,160232,1413,19805.0449,26627.9785,0.895421150667,-2.8568497011,0,0,
2828,2828,1.4140000,160233,1414,19806.6074,26629.7812,2.91292556649,2.51749025542,0,0,
2829,2829,1.4145000,160233,1414,19804.8047,26630.8652,-0.0821987867297,7.27031744085,0,0,
2830,2830,1.4150000,160234,1415,19804.3242,26630.625,-1.69133539482,6.77230019229,0,0,
2831,2831,1.4155000,160234,1415,19803.4824,26633.1484,-1.67720128486,9.33609838509,0,0,
2832,2832,1.4160000,160235,1416,19803.3613,26634.3496,-0.549075579676,11.9218460019,0,0,
2833,2833,1.4165000,160235,1416,19801.0781,26635.4316,-2.25463830143,14.8892240494,0,0,
2834,2834,1.4170000,160236,1417,19800.4785,26634.7109,-1.27983076312,13.7080342505,0,0,
2835,2835,1.4175000,160236,1417,19796.9902,26635.4316,-4.05611536914,13.8772727522,0,0,
2836,2836,1.4180000,160237,1418,19798.1934,26634.9512,-1.1492449612,10.992867089,0,0,
2837,2837,1.4185000,160237,1418,19796.3906,26632.1875,-2.7267564068,7.42068261398,0,0,
2838,2838,1.4190000,160238,1419,19796.5098,26630.1426,-1.05954566278,3.69207513298,0,0,
2839,2839,1.4195000,160238,1419,19793.8652,26631.3438,-1.79262469073,2.7177413673,0,0,
2840,2840,1.4200000,160239,1420,19795.5488,26630.2637,-0.481679898925,2.22551762768,0,0,
2841,2841,1.4205000,160239,1420,19795.6699,26627.2578,0.992056959617,-1.49685405052,0,0,
2842,2842,1.4210000,160240,1421,19797.3516,26630.8652,4.43403249362,-1.95786249356,0,0,
2843,2843,1.4215000,160240,1421,19799.1543,26632.7871,5.39075676874,-1.30169188603,0,0,
2844,2844,1.4220000,160241,1422,19796.2715,26631.9453,2.76380153834,-1.93820027198,0,0,
2845,2845,1.4225000,160241,1422,19798.1934,26630.0234,4.25938551488,0.471173776756,0,0,
2846,2846,1.4230000,160242,1423,19797.7129,26628.2188,2.3690879527,1.80186831369,0,0,
2847,2847,1.4235000,160242,1423,19794.9473,26622.9297,-0.873322792815,-1.29437756426,0,0,
2848,2848,1.4240000,160243,1424,19788.0957,26628.0996,-5.06609650559,0.929568068756,0,0,
2849,2849,1.4245000,160243,1424,19784.9707,26629.541,-5.67727129045,0.563421896812,0,0,
2850,2850,1.4250000,160244,1425,19787.2559,26630.1426,-4.1227174796,3.0257603996,0,0,
2851,2851,1.4255000,160244,1425,19783.4082,26627.9785,-6.78135069805,3.9875088184,0,0,
2852,2852,1.4260000,160245,1426,19784.7305,26628.5801,-2.62054108557,4.91046547483,0,0,
2853,2853,1.4265000,160245,1426,19782.5684,26626.5371,-2.91337882302,6.3500646043,0,0,
2854,2854,1.4270000,160246,1427,19781.3652,26628.3418,-1.76684903831,10.1682369959,0,0,
2855,2855,1.4275000,160246,1427,19778.8418,26625.8145,-2.37241095935,8.87425141211,0,0,
2856,2856,1.4280000,160247,1428,19780.6426,26622.4512,-0.625306709157,4.62258445005,0,0,
2857,2857,1.4285000,160247,1428,19781.8457,26620.2871,0.753867041515,3.11722633664,0,0,
2858,2858,1.4290000,160248,1429,19780.4043,26623.5312,0.353682083536,7.01414840828,0,0,
2859,2859,1.4295000,160248,1429,19778.5996,26624.4941,1.12887022432,5.38914622186,0,0,
2860,2860,1.4300000,160249,1430,19776.5566,26620.7676,0.748217209055,-1.6923060436,0,0,
2861,2861,1.4305000,160249,1430,19777.2793,26611.873,3.20706807709,-13.835734144,0,0,
2862,2862,1.4310000,160250,1431,19776.0762,26606.3438,3.15968284326,-19.3780643976,0,0,
2863,2863,1.4315000,160250,1431,19773.1914,26607.1855,2.26710791618,-16.4376395528,0,0,
2864,2864,1.4320000,160251,1432,19772.4707,26606.7031,2.31853769744,-11.8087140884,0,0,
2865,2865,1.4325000,160251,1432,19765.0176,26602.375,-4.06829365429,-9.71125373783,0,0,
2866,2866,1.4330000,160252,1433,19771.6289,26598.0488,3.45894991313,-9.14570483364,0,0,
2867,2867,1.4335000,160252,1433,19775.3555,26593.6016,7.26094457599,-8.34968683082,0,0,
2868,2868,1.4340000,160253,1434,19774.5137,26587.7109,6.29358726014,-9.85893076456,0,0,
2869,2869,1.4345000,160253,1434,19774.2734,26590.7168,4.98005203223,-2.83779390771,0,0,
2870,2870,1.4350000,160254,1435,19774.1523,26601.6562,3.50663713993,6.91193099693,0,0,
2871,2871,1.4355000,160254,1435,19771.8691,26611.3906,1.82616181544,13.7863432472,0,0,
2872,2872,1.4360000,160255,1436,19768.7441,26617.041,0.0497758196229,17.2670232967,0,0,
2873,2873,1.4365000,160255,1436,19767.6621,26616.4395,-0.07401396355,15.5505118067,0,0,
2874,2874,1.4370000,160256,1437,19762.4941,26613.7949,-2.98168472304,10.9284025561,0,0,
2875,2875,1.4375000,160256,1437,19762.1328,26613.5547,-1.9087019548,8.7377143295,0,0,
2876,2876,1.4380000,160257,1438,19760.5703,26616.7988,-1.72265766858,8.24971516972,0,0,
2877,2877,1.4385000,160257,1438,19761.0508,26619.4453,-0.600460054251,8.07841414766,0,0,
2878,2878,1.4390000,160258,1439,19762.1328,26621.9688,1.5454639419,6.37813245299,0,0,
2879,2879,1.4395000,160258,1439,19762.7324,26629.541,3.4070908542,7.83180707546,0,0,
2880,2880,1.4400000,160259,1440,19763.8145,26629.7812,3.21162108197,4.86455169687,0,0,
2881,2881,1.4405000,160259,1440,19768.3828,26628.0996,7.36404596911,-0.4243393607,0,0,
2882,2882,1.4410000,160260,1441,19763.8145,26633.2676,3.72562357456,-2.69158775421,0,0,
2883,2883,1.4415000,160260,1441,19762.4941,26647.0918,1.84688314857,4.44033892684,0,0,
2884,2884,1.4420000,160261,1442,19760.8105,26656.9473,1.13872248945,7.93581360686,0,0,
2885,2885,1.4425000,160261,1442,19762.4941,26652.1406,2.27876186476,1.69100074075,0,0,
2886,2886,1.4430000,160262,1443,19768.3828,26649.2559,6.0499878128,-2.64542464809,0,0,
2887,2887,1.4435000,160262,1443,19767.7832,26649.9766,4.20646254755,-3.91863402652,0,0,
2888,2888,1.4440000,160263,1444,19764.416,26636.7559,2.37873523159,-21.0428889606,0,0,
2889,2889,1.4445000,160263,1444,19764.7773,26614.6387,2.91874818637,-40.4754735679,0,0,
2890,2890,1.4450000,160264,1445,19765.7383,26600.9355,0.885476650091,-45.7985921323,0,0,
2891,2891,1.4455000,160264,1445,19753.1172,26607.4238,-10.0197079309,-31.5380507554,0,0,
2892,2892,1.4460000,160265,1446,19746.627,26622.6895,-12.9796447212,-14.4794133954,0,0,
2893,2893,1.4465000,160265,1446,19750.834,26633.2676,-6.67518568066,-1.53014704682,0,0,
2894,2894,1.4470000,160266,1447,19750.834,26632.666,-4.6368891821,-1.00608807072,0,0,
2895,2895,1.4475000,160266,1447,19750.5938,26630.7441,-3.33575947615,-1.46950394602,0,0,
2896,2896,1.4480000,160267,1448,19752.1562,26616.5605,-2.570960159,-13.428290094,0,0,
2897,2897,1.4485000,160267,1448,19750.834,26606.1016,-3.83266254292,-19.1126944858,0,0,
2898,2898,1.4490000,160268,1449,19749.9922,26605.9824,-3.49448135967,-15.1451766463,0,0,
2899,2899,1.4495000,160268,1449,19753.5977,26606.584,1.54919958445,-12.8033027776,0,0,
2900,2900,1.4500000,160269,1450,19755.041,26605.502,3.18766819954,-12.6168187709,0,0,
2901,2901,1.4505000,160269,1450,19757.5645,26603.5781,5.23357975696,-13.7322286322,0,0,
2902,2902,1.4510000,160270,1451,19757.3242,26599.4922,4.47058109975,-15.4972235719,0,0,
2903,2903,1.4515000,160270,1451,19754.1992,26595.8848,2.09569636169,-15.5929619835,0,0,
2904,2904,1.4520000,160271,1452,19759.3691,26592.8809,5.65154171952,-12.0676417256,0,0,
2905,2905,1.4525000,160271,1452,19760.9316,26590.5957,5.74594265465,-6.58420388076,0,0,
2906,2906,1.4530000,160272,1453,19752.877,26596.9668,-3.45359073691,4.09748024721,0,0,
2907,2907,1.4535000,160272,1453,19751.6738,26603.5781,-4.76673879355,13.2295474928,0,0,
2908,2908,1.4540000,160273,1454,19746.2656,26610.9121,-8.59735911332,20.3946928648,0,0,
2909,2909,1.4545000,160273,1454,19743.7422,26622.8105,-10.0506717742,28.8078536397,0,0,
2910,2910,1.4550000,160274,1455,19742.2988,26627.8594,-10.536506385,26.4330762635,0,0,
2911,2911,1.4555000,160274,1455,19742.0586,26625.8145,-8.36772417969,18.7018562906,0,0,
2912,2912,1.4560000,160275,1456,19742.9004,26621.6094,-5.22796084821,12.3618875396,0,0,
2913,2913,1.4565000,160275,1456,19743.9824,26620.166,-3.01722845198,11.0795752227,0,0,
2914,2914,1.4570000,160276,1457,19742.2988,26612.5938,-2.35419336822,4.33711119456,0,0,
2915,2915,1.4575000,160276,1457,19744.2227,26607.7871,-0.0757908534357,0.656859382404,0,0,
2916,2916,1.4580000,160277,1458,19738.8145,26602.1348,-3.75101272843,-4.48091569856,0,0,
2917,2917,1.4585000,160277,1458,19736.7695,26600.4531,-4.81760873899,-4.34062550126,0,0,
2918,2918,1.4590000,160278,1459,19736.4082,26598.5293,-3.7153393929,-5.13045722839,0,0,
2919,2919,1.4595000,160278,1459,19734.2461,26595.8848,-3.66165384032,-7.7139243501,0,0,
2920,2920,1.4600000,160279,1460,19738.9336,26593.9609,0.321547500447,-6.03772899983,0,0,
2921,2921,1.4605000,160279,1460,19740.2559,26594.084,1.5181704414,-3.30097575025,0,0,
2922,2922,1.4610000,160280,1461,19738.332,26600.6934,1.80446993619,0.565392280984,0,0,
2923,2923,1.4615000,160280,1461,19734.125,26607.6641,-1.51291965286,4.39560800041,0,0,
2924,2924,1.4620000,160281,1462,19733.2832,26619.6855,-0.421479395241,13.2810414388,0,0,
2925,2925,1.4625000,160281,1462,19731.3613,26627.7402,-1.67424262804,22.0319354297,0,0,
2926,2926,1.4630000,160282,1463,19729.0762,26629.3027,-3.94301607228,22.7414446499,0,0,
2927,2927,1.4635000,160282,1463,19726.6738,26620.2871,-4.24713304774,13.4523422581,0,0,
2928,2928,1.4640000,160283,1464,19728.957,26612.7129,1.49437286888,5.51369378864,0,0,
2929,2929,1.4645000,160283,1464,19730.2793,26613.6738,4.05203006348,8.4715837448,0,0,
2930,2930,1.4650000,160284,1465,19728.5957,26614.7578,1.32063453914,11.7548711654,0,0,
2931,2931,1.4655000,160284,1465,19727.0332,26614.6387,2.88477289812,11.0932096077,0,0,
2932,2932,1.4660000,160285,1466,19720.4219,26612.7129,-0.35358043338,5.86468113926,0,0,
2933,2933,1.4665000,160285,1466,19718.2598,26617.8828,-1.18230001216,10.2764809565,0,0,
2934,2934,1.4670000,160286,1467,19719.9414,26623.6504,2.23533279661,15.2785856213,0,0,
2935,2935,1.4675000,160286,1467,19720.0605,26614.5156,3.6216756821,7.38475317884,0,0,
2936,2936,1.4680000,160287,1468,19724.1484,26613.7949,6.2159333943,8.32837338771,0,0,
2937,2937,1.4685000,160287,1468,19724.3887,26612.5938,5.94367492443,8.44555087631,0,0,
2938,2938,1.4690000,160288,1469,19724.6289,26611.752,6.30031000463,6.78333793984,0,0,
2939,2939,1.4695000,160288,1469,19723.4277,26607.6641,5.51823536862,1.13228007011,0,0,
2940,2940,1.4700000,160289,1470,19720.7832,26614.998,3.51605338354,5.47453723331,0,0,
2941,2941,1.4705000,160289,1470,19716.6973,26624.373,0.496503424232,9.84512431125,0,0,
2942,2942,1.4710000,160290,1471,19717.418,26628.0996,2.3908933125,9.27899381363,0,0,
2943,2943,1.4715000,160290,1471,19718.1387,26629.541,4.92949171678,7.01069152671,0,0,
2944,2944,1.4720000,160291,1472,19720.1816,26614.1562,5.70780765235,-6.61290529038,0,0,
2945,2945,1.4725000,160291,1472,19720.0605,26606.4629,5.34171311818,-10.1565794704,0,0,
2946,2946,1.4730000,160292,1473,19712.1289,26602.0156,-0.82295229514,-12.5261477975,0,0,
2947,2947,1.4735000,160292,1473,19710.9258,26595.2832,-1.00584362248,-15.9542874622,0,0,
2948,2948,1.4740000,160293,1474,19706.4785,26592.1582,-2.57499824217,-16.2062573134,0,0,
2949,2949,1.4745000,160293,1474,19704.3145,26587.4707,-3.04873117192,-18.7501156777,0,0,
2950,2950,1.4750000,160294,1475,19706.5996,26585.6699,-0.215696980329,-19.5078357926,0,0,
2951,2951,1.4755000,160294,1475,19706.5996,26585.0684,1.17196210955,-17.3268786083,0,0,
2952,2952,1.4760000,160295,1476,19706.8398,26581.4609,2.59986573749,-15.7383509695,0,0,
2953,2953,1.4765000,160295,1476,19709.2441,26579.416,4.93896046795,-11.879253364,0,0,
2954,2954,1.4770000,160296,1477,19706.3574,26579.416,3.76904772961,-6.30296393746,0,0,
2955,2955,1.4775000,160296,1477,19701.5508,26585.4277,-0.335630904526,2.40239424548,0,0,
2956,2956,1.4780000,160297,1478,19695.6602,26593.7207,-2.96890439224,10.1641690235,0,0,
2957,2957,1.4785000,160297,1478,19695.541,26592.8809,-1.63371185126,8.9686809859,0,0,
2958,2958,1.4790000,160298,1479,19699.9883,26580.6191,3.28134744614,-1.98614112479,0,0,
2959,2959,1.4795000,160298,1479,19701.791,26577.6152,5.75864669153,-4.37800481129,0,0,
2960,2960,1.4800000,160299,1480,19699.8672,26578.2168,2.17555680477,-1.05975043766,0,0,
2961,2961,1.4805000,160299,1480,19704.6758,26577.6152,5.76726526344,-0.0205615978223,0,0,
2962,2962,1.4810000,160300,1481,19708.5215,26576.6543,9.82928484737,-3.47068232258,0,0,
2963,2963,1.4815000,160300,1481,19713.6914,26567.1562,12.9552491967,-12.79539159,0,0,
2964,2964,1.4820000,160301,1482,19719.5801,26570.8828,15.9641787674,-8.77700488591,0,0,
2965,2965,1.4825000,160301,1482,19715.8535,26573.7676,9.38096960767,-1.34968806814,0,0,
2966,2966,1.4830000,160302,1483,19717.5371,26576.6543,7.39079883246,5.23340190053,0,0,
2967,2967,1.4835000,160302,1483,19712.248,26578.6953,1.12120082252,10.8253303959,0,0,
2968,2968,1.4840000,160303,1484,19707.4395,26582.541,-2.78962629503,15.2799563479,0,0,
2969,2969,1.4845000,160303,1484,19698.4258,26593.3613,-10.2579749451,24.8407001853,0,0,
2970,2970,1.4850000,160304,1485,19692.2949,26602.7363,-15.1981210759,31.6129015091,0,0,
2971,2971,1.4855000,160304,1485,19692.2949,26613.7949,-11.1342003574,36.2622187203,0,0,
2972,2972,1.4860000,160305,1486,19691.6934,26617.5215,-7.70519285437,31.1722054011,0,0,
2973,2973,1.4865000,160305,1486,19698.7871,26616.5605,-0.883612578079,23.7844647044,0,0,
2974,2974,1.4870000,160306,1487,19692.5352,26616.2012,-6.10730587511,18.537764599,0,0,
2975,2975,1.4875000,160306,1487,19691.6934,26611.3906,-5.72442646379,12.9551175248,0,0,
2976,2976,1.4880000,160307,1488,19691.0918,26586.75,-7.16661117485,-8.79887223138,0,0,
2977,2977,1.4885000,160307,1488,19692.1738,26575.3301,-5.58983845089,-15.6168180688,0,0,
2978,2978,1.4890000,160308,1489,19694.3379,26571.2441,-2.86027056105,-16.5651068385,0,0,
2979,2979,1.4895000,160308,1489,19694.5801,26567.3984,-1.81268464197,-17.6225913142,0,0,
2980,2980,1.4900000,160309,1490,19694.3379,26561.8672,-1.2292689178,-21.671498014,0,0,
2981,2981,1.4905000,160309,1490,19690.373,26561.2676,-3.69810635103,-21.4268918223,0,0,
2982,2982,1.4910000,160310,1491,19684.8418,26566.1953,-7.34778398231,-14.9020454036,0,0,
2983,2983,1.4915000,160310,1491,19685.3223,26569.4395,-4.48929202433,-10.1513466251,0,0,
2984,2984,1.4920000,160311,1492,19685.6836,26571.7246,-4.21870762092,-2.59821594301,0,0,
2985,2985,1.4925000,160311,1492,19686.2852,26579.8984,-2.69817616469,7.88385660772,0,0,
2986,2986,1.4930000,160312,1493,19686.0449,26595.7656,-0.408888925502,19.940583307,0,0,
2987,2987,1.4935000,160312,1493,19687.6074,26602.0156,1.24305702861,21.8550464335,0,0,
2988,2988,1.4940000,160313,1494,19687.6074,26594.9238,2.73242192494,10.9319659504,0,0,
2989,2989,1.4945000,160313,1494,19684.8418,26585.5469,0.367920446998,-0.920138568617,0,0,
2990,2990,1.4950000,160314,1495,19686.4043,26578.2168,0.840003772164,-10.5496100514,0,0,
2991,2991,1.4955000,160314,1495,19690.1309,26576.5332,4.04055025085,-12.7685790371,0,0,
2992,2992,1.4960000,160315,1496,19689.5293,26573.5293,3.08315080234,-13.5329965108,0,0,
2993,2993,1.4965000,160315,1496,19689.6504,26574.6094,2.04136763183,-10.2343602706,0,0,
2994,2994,1.4970000,160316,1497,19680.877,26576.291,-4.12163099522,-6.95909303229,0,0,
2995,2995,1.4975000,160316,1497,19682.6777,26573.2871,-1.41594929261,-9.74108017103,0,0,
2996,2996,1.4980000,160317,1498,19677.6309,26574.9707,-3.35331842813,-9.38586109821,0,0,
2997,2997,1.4985000,160317,1498,19674.8652,26573.6484,-4.97742942827,-9.89987914178,0,0,
2998,2998,1.4990000,160318,1499,19675.4668,26570.7637,-4.13397819659,-10.1359789449,0,0,
2999,2999,1.4995000,160318,1499,19676.5488,26569.9219,-1.98220988955,-11.0054333923,0,0,
3000,3000,1.5000000,160319,1500,19674.9863,26565.5938,-3.68018099816,-13.2328486027,0,0,
3001,3001,1.5005000,160319,1500,19677.6309,26564.1504,-1.80533891027,-12.903679174,0,0,
3002,3002,1.5010000,160320,1501,19676.0684,26562.8301,-1.82043813757,-15.5112421372,0,0,
3003,3003,1.5015000,160320,1501,19672.9434,26565.4746,-4.02873077359,-12.5946300375,0,0,
3004,3004,1.5020000,160321,1502,19670.7793,26562.709,-4.85417795449,-16.1391852967,0,0,
3005,3005,1.5025000,160321,1502,19672.582,26563.9121,-1.29178938255,-11.674263695,0,0,
3006,3006,1.5030000,160322,1503,19666.9316,26567.5176,-5.86405476038,-5.51980675488,0,0,
3007,3007,1.5035000,160322,1503,19664.6484,26567.7578,-4.55437171257,-2.22168872615,0,0,
3008,3008,1.5040000,160323,1504,19665.7305,26560.666,-0.0194648647764,-6.7767234067,0,0,
3009,3009,1.5045000,160323,1504,19663.2051,26557.4199,0.773366146512,-7.82013755654,0,0,
3010,3010,1.5050000,160324,1505,19663.9277,26556.9395,2.5137924376,-5.39527306956,0,0,
3011,3011,1.5055000,160324,1505,19662.0039,26562.9512,3.07306303941,0.503407063469,0,0,
3012,3012,1.5060000,160325,1506,19658.6387,26563.1895,2.85285805784,0.1888889072,0,0,
3013,3013,1.5065000,160325,1506,19658.7598,26561.627,2.45371068864,0.318412402979,0,0,
3014,3014,1.5070000,160326,1507,19658.998,26561.748,4.50240017012,2.43967117429,0,0,
3015,3015,1.5075000,160326,1507,19657.5566,26558.502,4.00285498495,4.42729801425,0,0,
3016,3016,1.5080000,160327,1508,19659.8398,26558.2637,4.93795684382,11.0542709117,0,0,
3017,3017,1.5085000,160327,1508,19654.6719,26555.1348,0.383684686338,11.7783251139,0,0,
3018,3018,1.5090000,160328,1509,19655.7539,26553.6953,2.03408385791,11.1526810283,0,0,
3019,3019,1.5095000,160328,1509,19653.1094,26548.8848,0.99108614298,7.21215737359,0,0,
3020,3020,1.5100000,160329,1510,19651.0645,26535.4238,0.853740068291,-4.35829263368,0,0,
3021,3021,1.5105000,160329,1510,19653.5898,26522.4434,5.12831047259,-14.5436938212,0,0,
3022,3022,1.5110000,160330,1511,19652.3887,26517.9941,5.40930356366,-15.1423680384,0,0,
3023,3023,1.5115000,160330,1511,19647.9395,26520.1582,2.6202540292,-9.06912849018,0,0,
3024,3024,1.5120000,160331,1512,19645.1758,26527.8516,0.146276122734,4.23980015522,0,0,
3025,3025,1.5125000,160331,1512,19646.2578,26535.5449,2.07708561344,13.790279148,0,0,
3026,3026,1.5130000,160332,1513,19642.8926,26537.5859,1.536425249,13.6720775941,0,0,
3027,3027,1.5135000,160332,1513,19640.4883,26539.2715,0.282692595201,15.1179167235,0,0,
3028,3028,1.5140000,160333,1514,19641.4492,26536.9863,3.43367105449,14.1958540549,0,0,
3029,3029,1.5145000,160333,1514,19641.3301,26535.3027,4.51094962716,13.4646342871,0,0,
3030,3030,1.5150000,160334,1515,19640.4883,26532.4199,3.15487884481,10.1233527443,0,0,
3031,3031,1.5155000,160334,1515,19640.9688,26525.6875,3.62122179001,4.02274897867,0,0,
3032,3032,1.5160000,160335,1516,19639.7676,26524.4844,3.34965088308,5.35835529691,0,0,
3033,3033,1.5165000,160335,1516,19637.123,26520.1582,1.19252297481,3.60350318637,0,0,
3034,3034,1.5170000,160336,1517,19637.4824,26521.2402,4.84855103151,6.49940412911,0,0,
3035,3035,1.5175000,160336,1517,19638.8047,26516.0703,6.0064438943,3.1817623913,0,0,
3036,3036,1.5180000,160337,1518,19637.3613,26503.5703,6.82236476102,-7.15848247437,0,0,
3037,3037,1.5185000,160337,1518,19637.4824,26499.002,6.65606078201,-7.13773104277,0,0,
3038,3038,1.5190000,160338,1519,19635.6797,26505.1328,3.74136753126,3.04954472527,0,0,
3039,3039,1.5195000,160338,1519,19632.6738,26513.3066,1.04636350628,10.6311598727,0,0,
3040,3040,1.5200000,160339,1520,19625.7031,26518.9551,-4.9949965107,16.0222926232,0,0,
3041,3041,1.5205000,160339,1520,19626.5449,26521.5996,-4.35836405975,16.8591161108,0,0,
3042,3042,1.5210000,160340,1521,19622.457,26527.0098,-5.60812245031,16.8814127778,0,0,
3043,3043,1.5215000,160340,1521,19622.457,26528.2109,-3.75146253973,13.7306443187,0,0,
3044,3044,1.5220000,160341,1522,19624.502,26524.7266,-0.647292156823,6.59477142676,0,0,
3045,3045,1.5225000,160341,1522,19621.4961,26515.2285,-2.14960712164,-1.79916796855,0,0,
3046,3046,1.5230000,160342,1523,19620.4141,26501.166,-1.7384639113,-12.3230642006,0,0,
3047,3047,1.5235000,160342,1523,19623.5391,26495.1562,3.13065130785,-12.7877942122,0,0,
3048,3048,1.5240000,160343,1524,19621.0137,26487.8223,2.36182342466,-13.8696999019,0,0,
3049,3049,1.5245000,160343,1524,19621.9766,26488.3047,5.07329118263,-9.31488336214,0,0,
3050,3050,1.5250000,160344,1525,19619.9336,26482.8965,2.92976243439,-9.99049047129,0,0,
3051,3051,1.5255000,160344,1525,19615.9668,26480.1309,1.02118232187,-10.3960347238,0,0,
3052,3052,1.5260000,160345,1526,19615.4863,26484.3379,2.86751636215,-4.27380893926,0,0,
3053,3053,1.5265000,160345,1526,19615.6055,26487.9434,1.75012227235,1.9988714148,0,0,
3054,3054,1.5270000,160346,1527,19607.1914,26495.0371,-4.31444900803,10.0476145596,0,0,
3055,3055,1.5275000,160346,1527,19608.3926,26497.1973,-1.72764599021,15.2832922089,0,0,
3056,3056,1.5280000,160347,1528,19608.2734,26495.2754,-2.62816437005,17.4923688599,0,0,
3057,3057,1.5285000,160347,1528,19607.3125,26492.752,-2.19685865965,17.1998264267,0,0,
3058,3058,1.5290000,160348,1529,19611.7598,26493.3516,1.6707507847,16.9100768045,0,0,
3059,3059,1.5295000,160348,1529,19612.8418,26484.9375,3.10004348865,9.12948182405,0,0,
3060,3060,1.5300000,160349,1530,19613.2012,26477.0059,3.60324075128,3.35428910254,0,0,
3061,3061,1.5305000,160349,1530,19611.0371,26478.0859,1.62646254931,4.5996966213,0,0,
3062,3062,1.5310000,160350,1531,19606.8301,26480.6113,-1.16762620902,5.43360018123,0,0,
3063,3063,1.5315000,160350,1531,19604.668,26476.7656,-1.5363778268,0.304078774715,0,0,
3064,3064,1.5320000,160351,1532,19602.2637,26473.2793,-3.59144948685,-1.65350209216,0,0,
3065,3065,1.5325000,160351,1532,19600.8203,26472.4375,-4.46569974359,-2.13488036258,0,0,
3066,3066,1.5330000,160352,1533,19604.3066,26468.8301,0.750007318222,-6.35044916595,0,0,
3067,3067,1.5335000,160352,1533,19605.748,26468.9512,1.78586962493,-5.07604196293,0,0,
3068,3068,1.5340000,160353,1534,19611.0371,26466.7891,6.18289697218,-4.19083494987,0,0,
3069,3069,1.5345000,160353,1534,19608.6348,26460.8984,3.05563177787,-6.81640744205,0,0,
3070,3070,1.5350000,160354,1535,19610.3164,26453.4453,2.54046459399,-11.2103674367,0,0,
3071,3071,1.5355000,160354,1535,19604.9082,26453.9277,-3.52557571511,-7.71692620516,0,0,
3072,3072,1.5360000,160355,1536,19604.3066,26448.6387,-3.67362390141,-8.94873197716,0,0,
3073,3073,1.5365000,160355,1536,19605.1484,26448.1562,-2.98929931387,-5.6532495326,0,0,
3074,3074,1.5370000,160356,1537,19601.3027,26444.791,-4.36694221453,-6.18874705643,0,0,
3075,3075,1.5375000,160356,1537,19603.2246,26441.0645,-2.95176739859,-6.23626451454,0,0,
3076,3076,1.5380000,160357,1538,19605.8691,26447.0762,0.971817858109,1.44617400111,0,0,
3077,3077,1.5385000,160357,1538,19602.9844,26450.2012,-2.2334382397,5.28601492118,0,0,
3078,3078,1.5390000,160358,1539,19602.3848,26458.6152,-3.55682333447,11.7543680863,0,0,
3079,3079,1.5395000,160358,1539,19602.623,26464.625,-3.19333831402,12.5494099234,0,0,
3080,3080,1.5400000,160359,1540,19600.8203,26464.625,-4.41944599764,9.57924647006,0,0,
3081,3081,1.5405000,160359,1540,19598.8965,26463.3027,-7.47849532477,5.66635851604,0,0,
3082,3082,1.5410000,160360,1541,19603.8262,26464.5059,-1.83344851568,1.81291294346,0,0,
3083,3083,1.5415000,160360,1541,19601.1816,26468.1094,-4.52906583934,1.60778763218,0,0,
3084,3084,1.5420000,160361,1542,19600.7012,26471.5957,-5.35149763018,1.5106237056,0,0,
3085,3085,1.5425000,160361,1542,19601.1816,26466.4277,-4.31454695975,-2.87014583486,0,0,
3086,3086,1.5430000,160362,1543,19603.1035,26458.4941,-2.58507132745,-8.06091418129,0,0,
3087,3087,1.5435000,160362,1543,19601.0605,26455.6094,-4.19274533413,-8.47527067263,0,0,
3088,3088,1.5440000,160363,1544,19602.2637,26452.7246,-1.95805414897,-8.49813188994,0,0,
3089,3089,1.5445000,160363,1544,19599.3789,26453.8047,-3.57281645486,-7.51891655715,0,0,
3090,3090,1.5450000,160364,1545,19599.3789,26458.252,-3.4409134366,-2.89986347762,0,0,
3091,3091,1.5455000,160364,1545,19597.8164,26461.6191,-3.09259413463,-2.36396748159,0,0,
3092,3092,1.5460000,160365,1546,19597.5762,26463.6621,-1.79691682234,-3.80270300942,0,0,
3093,3093,1.5465000,160365,1546,19596.252,26470.1543,-4.10156921249,-0.0149900725722,0,0,
3094,3094,1.5470000,160366,1547,19595.1719,26471.9551,-2.8811108314,-1.33896593518,0,0,
3095,3095,1.5475000,160366,1547,19595.291,26467.75,-2.74227064297,-4.2575571265,0,0,
3096,3096,1.5480000,160367,1548,19595.5332,26465.4668,-3.80009705551,-3.20647926879,0,0,
3097,3097,1.5485000,160367,1548,19595.4121,26465.4668,-3.29375928468,-1.495950698,0,0,
3098,3098,1.5490000,160368,1549,19595.5332,26464.3828,-4.18911270564,-3.38365600568,0,0,
3099,3099,1.5495000,160368,1549,19596.0137,26462.9395,-3.09877491972,-3.71717291816,0,0,
3100,3100,1.5500000,160369,1550,19596.252,26461.8594,-2.18829964489,-3.58411388595,0,0,
3101,3101,1.5505000,160369,1550,19596.4941,26461.7402,-1.15459019529,-5.24631103555,0,0,
3102,3102,1.5510000,160370,1551,19596.373,26460.1777,0.186110927987,-8.94623070287,0,0,
3103,3103,1.5515000,160370,1551,19590.9648,26461.5,-3.097878779,-8.88050213407,0,0,
3104,3104,1.5520000,160371,1552,19592.166,26462.0996,-1.50476532849,-7.84310911256,0,0,
3105,3105,1.5525000,160371,1552,19592.2871,26464.9844,-1.19496614089,-6.33935370085,0,0,
3106,3106,1.5530000,160372,1553,19585.7949,26461.1387,-5.49275385429,-11.3084491444,0,0,
3107,3107,1.5535000,160372,1553,19587.8379,26461.2578,-2.7171609272,-11.295810983,0,0,
3108,3108,1.5540000,160373,1554,19590.2441,26461.6191,-0.257730625215,-9.22273408315,0,0,
3109,3109,1.5545000,160373,1554,19588.5605,26458.8535,-0.449648014445,-9.60260245833,0,0,
3110,3110,1.5550000,160374,1555,19589.8828,26453.3262,0.315556323497,-12.5898764175,0,0,
3111,3111,1.5555000,160374,1555,19587.959,26452.002,-0.289777199944,-12.3044107051,0,0,
3112,3112,1.5560000,160375,1556,19586.2754,26455.8496,-0.589920172522,-6.31358491369,0,0,
3113,3113,1.5565000,160375,1556,19587.959,26458.8535,1.46559019179,-2.60895576309,0,0,
3114,3114,1.5570000,160376,1557,19583.5117,26456.4512,0.502181053158,-4.1874041644,0,0,
3115,3115,1.5575000,160376,1557,19578.584,26452.6035,-3.21425258191,-5.98546207572,0,0,
3116,3116,1.5580000,160377,1558,19578.4629,26449.3594,-0.506890022762,-8.55665653004,0,0,
3117,3117,1.5585000,160377,1558,19577.8613,26441.0645,0.88197584189,-13.9383432324,0,0,
3118,3118,1.5590000,160378,1559,19578.2227,26438.1797,2.06292397084,-14.9806198746,0,0,
3119,3119,1.5595000,160378,1559,19578.7031,26438.2988,3.65676870876,-14.3012445266,0,0,
3120,3120,1.5600000,160379,1560,19575.2168,26444.6699,2.23974258864,-6.04262096576,0,0,
3121,3121,1.5605000,160379,1560,19570.4102,26451.4004,-1.44501917986,1.26305489887,0,0,
3122,3122,1.5610000,160380,1561,19570.1699,26466.3066,0.298120091801,11.4518499941,0,0,
3123,3123,1.5615000,160380,1561,19571.0098,26477.3652,3.06973591199,16.9719118251,0,0,
3124,3124,1.5620000,160381,1562,19570.8906,26488.9062,3.90943986346,21.8788831618,0,0,
3125,3125,1.5625000,160381,1562,19575.3379,26493.4746,8.85921942801,23.5674013306,0,0,
3126,3126,1.5630000,160382,1563,19578.8242,26487.8223,11.5423980255,17.278161604,0,0,
3127,3127,1.5635000,160382,1563,19580.748,26475.4434,13.1327926042,5.44048328395,0,0,
3128,3128,1.5640000,160383,1564,19580.8672,26471.9551,12.9598508275,3.26659742428,0,0,
3129,3129,1.5645000,160383,1564,19574.6172,26473.5176,8.10254843856,3.16469883027,0,0,
3130,3130,1.5650000,160384,1565,19572.4531,26479.5293,6.19741810722,6.99541119885,0,0,
3131,3131,1.5655000,160384,1565,19569.5684,26478.209,5.46281571508,2.49925979422,0,0,
3132,3132,1.5660000,160385,1566,19567.4043,26471.4766,5.13484935404,-5.80226255258,0,0,
3133,3133,1.5665000,160385,1566,19565,26464.9844,2.84716566366,-11.6760618545,0,0,
3134,3134,1.5670000,160386,1567,19557.5488,26463.3027,-0.843586076654,-11.7611516462,0,0,
3135,3135,1.5675000,160386,1567,19562.8379,26462.4609,4.86762405842,-7.32488995352,0,0,
3136,3136,1.5680000,160387,1568,19565.8418,26469.4316,6.52154064095,4.03304793698,0,0,
3137,3137,1.5685000,160387,1568,19566.8027,26484.5781,7.44617898737,18.7264969141,0,0,
3138,3138,1.5690000,160388,1569,19567.4043,26500.6855,6.51131335886,29.4254011462,0,0,
3139,3139,1.5695000,160388,1569,19563.1973,26512.5859,2.87234689955,35.4197801403,0,0,
3140,3140,1.5700000,160389,1570,19563.7988,26511.502,3.95662423242,29.1863041479,0,0,
3141,3141,1.5705000,160389,1570,19565,26501.6465,5.44637727921,14.3989168658,0,0,
3142,3142,1.5710000,160390,1571,19566.9238,26488.9062,7.79658958779,-0.806901054739,0,0,
3143,3143,1.5715000,160390,1571,19566.8027,26484.3379,8.65682986588,-6.38519107462,0,0,
3144,3144,1.5720000,160391,1572,19562.3574,26480.25,3.65564759957,-9.02957543644,0,0,
3145,3145,1.5725000,160391,1572,19562.1152,26476.5234,2.97495792407,-12.0042219714,0,0,
3146,3146,1.5730000,160392,1573,19562.4766,26474.3594,4.48572511462,-12.369433198,0,0,
3147,3147,1.5735000,160392,1573,19564.8809,26477.6074,5.17757598189,-8.10940601268,0,0,
3148,3148,1.5740000,160393,1574,19565.1211,26473.3984,3.64157321741,-9.1261308562,0,0,
3149,3149,1.5745000,160393,1574,19566.8027,26471.8359,4.95365734872,-6.74692519537,0,0,
3150,3150,1.5750000,160394,1575,19569.6895,26471.2344,5.06440238256,-3.84789547163,0,0,
3151,3151,1.5755000,160394,1575,19568.0059,26472.1973,2.88543425796,-1.49398412283,0,0,
3152,3152,1.5760000,160395,1576,19566.5645,26474.3594,1.07473596956,1.74238642316,0,0,
3153,3153,1.5765000,160395,1576,19561.875,26467.9902,-4.06623003146,-2.74551822565,0,0,
3154,3154,1.5770000,160396,1577,19554.7832,26471.1152,-7.32824416979,2.15619225542,0,0,
3155,3155,1.5775000,160396,1577,19550.9375,26467.8691,-9.28831649094,1.71659128623,0,0,
3156,3156,1.5780000,160397,1578,19548.5332,26473.7598,-9.05825634414,7.31523769436,0,0,
3157,3157,1.5785000,160397,1578,19545.0469,26472.0762,-9.95759285906,6.94751604606,0,0,
3158,3158,1.5790000,160398,1579,19544.6855,26470.7559,-8.81399622376,4.89688544011,0,0,
3159,3159,1.5795000,160398,1579,19542.4023,26471.2344,-8.94752589387,3.18063487952,0,0,
3160,3160,1.5800000,160399,1580,19540.5996,26473.1582,-7.50629710567,3.78746719907,0,0,
3161,3161,1.5805000,160399,1580,19539.5176,26477.4863,-6.66223060543,6.278600968,0,0,
3162,3162,1.5810000,160400,1581,19534.709,26479.5293,-8.92391084899,3.17854052875,0,0,
3163,3163,1.5815000,160400,1581,19537.2344,26473.6406,-4.54314716648,-4.60468882434,0,0,
3164,3164,1.5820000,160401,1582,19535.791,26472.9199,-4.5168060216,-6.32007533532,0,0,
3165,3165,1.5825000,160401,1582,19531.1035,26473.5176,-7.32995829501,-2.27707358543,0,0,
3166,3166,1.5830000,160402,1583,19526.7754,26477.8457,-9.35241431801,6.63378042872,0,0,
3167,3167,1.5835000,160402,1583,19523.0488,26482.1738,-9.371651462,14.0506985225,0,0,
3168,3168,1.5840000,160403,1584,19523.7715,26484.6973,-5.14095727522,17.1188926645,0,0,
3169,3169,1.5845000,160403,1584,19523.4102,26488.3047,-0.944290488128,17.4548069777,0,0,
3170,3170,1.5850000,160404,1585,19518.3613,26496.1172,-2.90373882807,20.3629152593,0,0,
3171,3171,1.5855000,160404,1585,19519.8047,26504.0488,2.12028678577,22.3693297439,0,0,
3172,3172,1.5860000,160405,1586,19522.0879,26507.7754,6.50853614124,20.7721402145,0,0,
3173,3173,1.5865000,160405,1586,19516.3184,26509.2188,2.08157699903,17.4943007811,0,0,
3174,3174,1.5870000,160406,1587,19513.4336,26510.4219,3.43343589672,13.8085848464,0,0,
3175,3175,1.5875000,160406,1587,19513.3145,26507.8965,3.29983064637,10.1096029043,0,0,
3176,3176,1.5880000,160407,1588,19512.4727,26506.5762,2.11435808208,7.48896314727,0,0,
3177,3177,1.5885000,160407,1588,19507.5449,26502.127,-0.748583071762,0.402964295147,0,0,
3178,3178,1.5890000,160408,1589,19505.2598,26499.8438,-1.82826788535,-5.11811329394,0,0,
3179,3179,1.5895000,160408,1589,19500.8125,26493.1113,-2.70612192287,-11.4161734583,0,0,
3180,3180,1.5900000,160409,1590,19502.6152,26490.5879,1.06223489567,-10.7499420778,0,0,
3181,3181,1.5905000,160409,1590,19502.0137,26487.8223,2.23226784292,-10.5228959151,0,0,
3182,3182,1.5910000,160410,1591,19501.6543,26487.1016,3.77510528867,-8.63208593837,0,0,
3183,3183,1.5915000,160410,1591,19500.4512,26490.9473,5.24686546731,-4.62996963569,0,0,
3184,3184,1.5920000,160411,1592,19498.0488,26496.7188,4.48636646473,1.13040481303,0,0,
3185,3185,1.5925000,160411,1592,19496.3652,26503.3281,3.73100303726,5.20337933426,0,0,
3186,3186,1.5930000,160412,1593,19494.2012,26510.3027,3.89665591084,8.6981226762,0,0,
3187,3187,1.5935000,160412,1593,19493.5996,26511.1426,3.25770890677,5.29467463804,0,0,
3188,3188,1.5940000,160413,1594,19491.4355,26512.4629,1.62154858086,4.98706985456,0,0,
3189,3189,1.5945000,160413,1594,19486.8691,26508.2578,-0.690862282791,0.237899556685,0,0,
3190,3190,1.5950000,160414,1595,19480.498,26515.8301,-5.57461691513,5.56216945521,0,0,
3191,3191,1.5955000,160414,1595,19478.0938,26518.2344,-4.16461960506,4.00222234407,0,0,
3192,3192,1.5960000,160415,1596,19476.0508,26513.3066,-2.76723497968,-3.43832730469,0,0,
3193,3193,1.5965000,160415,1596,19480.6191,26502.7285,3.52502282135,-12.930274571,0,0,
3194,3194,1.5970000,160416,1597,19480.0176,26496.1172,6.99146106032,-18.3035199316,0,0,
3195,3195,1.5975000,160416,1597,19478.5762,26486.1406,6.81909649672,-23.5460580877,0,0,
3196,3196,1.5980000,160417,1598,19478.334,26477.6074,7.67947540458,-28.9500349867,0,0,
3197,3197,1.5985000,160417,1598,19479.0566,26472.0762,8.87895738389,-28.143735187,0,0,
3198,3198,1.5990000,160418,1599,19473.2871,26480.0098,3.2465691379,-17.8195667391,0,0,
3199,3199,1.5995000,160418,1599,19473.6465,26489.0254,4.14239474562,-9.84956940531,0,0,
3200,3200,1.6000000,160419,1600,19467.7559,26502.7285,0.418637641496,0.868445631381,0,0,
3201,3201,1.6005000,160419,1600,19467.2754,26512.9453,0.781947703593,6.24290082708,0,0,
3202,3202,1.6010000,160420,1601,19462.9492,26514.5078,-1.53472533122,1.20542819917,0,0,
3203,3203,1.6015000,160420,1601,19458.8613,26514.5078,-4.34907758358,-2.04813788198,0,0,
3204,3204,1.6020000,160421,1602,19458.9824,26514.5078,-2.85380784465,-5.40026456348,0,0,
3205,3205,1.6025000,160421,1602,19459.7031,26513.0645,-0.892715976258,-6.15761412471,0,0,
3206,3206,1.6030000,160422,1603,19456.5781,26518.5957,-2.68822935759,0.278165754537,0,0,
3207,3207,1.6035000,160422,1603,19451.4082,26516.4316,-5.16668663849,-0.597582311615,0,0,
3208,3208,1.6040000,160423,1604,19450.4473,26511.3828,-4.11272774019,-4.37779379737,0,0,
3209,3209,1.6045000,160423,1604,19450.207,26502.6094,-1.27507671122,-12.7360817194,0,0,
3210,3210,1.6050000,160424,1605,19451.7695,26489.748,1.8976596321,-23.5700161997,0,0,
3211,3211,1.6055000,160424,1605,19453.4531,26486.7422,4.37279039119,-23.9144766808,0,0,
3212,3212,1.6060000,160425,1606,19458.2598,26494.0723,8.30407932255,-14.149020774,0,0,
3213,3213,1.6065000,160425,1606,19454.2949,26505.373,4.36244356258,-2.14064690513,0,0,
3214,3214,1.6070000,160426,1607,19452.25,26508.2578,4.1307471007,0.533010633289,0,0,
3215,3215,1.6075000,160426,1607,19451.0488,26507.2969,1.25181649291,2.34829789187,0,0,
3216,3216,1.6080000,160427,1608,19445.0391,26506.2129,-5.33012077732,3.28406367954,0,0,
3217,3217,1.6085000,160427,1608,19445.7598,26504.4121,-3.43361962367,2.2313928308,0,0,
3218,3218,1.6090000,160428,1609,19441.3125,26505.4922,-7.31252461573,2.2275731294,0,0,
3219,3219,1.6095000,160428,1609,19440.1113,26504.7715,-6.10703060758,2.91387514957,0,0,
3220,3220,1.6100000,160429,1610,19436.5039,26505.0137,-8.60688907752,5.32307272664,0,0,
3221,3221,1.6105000,160429,1610,19432.7773,26502.8496,-10.1938831917,5.13449653814,0,0,
3222,3222,1.6110000,160430,1611,19432.5371,26495.3965,-8.25150266322,0.297918849656,0,0,
3223,3223,1.6115000,160430,1611,19428.9316,26487.7031,-8.41039217207,-5.49497853955,0,0,
3224,3224,1.6120000,160431,1612,19427.7285,26494.6738,-7.01710023299,2.31162174671,0,0,
3225,3225,1.6125000,160431,1612,19426.8887,26509.2188,-6.15764924874,13.6894212619,0,0,
3226,3226,1.6130000,160432,1613,19428.3301,26517.2734,-2.5066740517,17.4419383032,0,0,
3227,3227,1.6135000,160432,1613,19424.8457,26519.7969,-5.3525240581,15.9231934005,0,0,
3228,3228,1.6140000,160433,1614,19429.5332,26517.1543,-0.580836075431,11.9781403212,0,0,
3229,3229,1.6145000,160433,1614,19427.9707,26516.1895,-0.642800560788,10.9839509196,0,0,
3230,3230,1.6150000,160434,1615,19424.2441,26511.623,-3.43171839498,4.97405229097,0,0,
3231,3231,1.6155000,160434,1615,19425.3262,26507.6562,-0.816479855574,0.251916846617,0,0,
3232,3232,1.6160000,160435,1616,19426.5273,26514.0293,1.2001481952,5.95338648727,0,0,
3233,3233,1.6165000,160435,1616,19427.8496,26520.6387,1.58603480001,12.4281106033,0,0,
3234,3234,1.6170000,160436,1617,19427.1289,26517.1543,3.12098934121,7.73994593049,0,0,
3235,3235,1.6175000,160436,1617,19422.2012,26520.5176,-0.707075543524,11.0694736605,0,0,
3236,3236,1.6180000,160437,1618,19417.0312,26527.9707,-4.06030408914,14.3447086163,0,0,
3237,3237,1.6185000,160437,1618,19416.0703,26532.5391,-3.55131510373,15.5423541729,0,0,
3238,3238,1.6190000,160438,1619,19418.4746,26517.9941,-0.241552853004,-2.88104713962,0,0,
3239,3239,1.6195000,160438,1619,19414.9883,26520.7578,-2.88084270411,-5.21803414218,0,0,
3240,3240,1.6200000,160439,1620,19413.1855,26530.8574,-2.00999639483,-1.69183539786,0,0,
3241,3241,1.6205000,160439,1620,19413.3047,26529.1719,-1.37767807688,-8.17215917295,0,0,
3242,3242,1.6210000,160440,1621,19412.3438,26520.0371,-0.649879607826,-19.674644462,0,0,
3243,3243,1.6215000,160440,1621,19416.5508,26513.9062,3.1645282675,-24.2470907955,0,0,
3244,3244,1.6220000,160441,1622,19414.1465,26512.7051,0.398528685641,-24.1042959526,0,0,
3245,3245,1.6225000,160441,1622,19414.8672,26515.9512,0.782605622997,-17.2999619647,0,0,
3246,3246,1.6230000,160442,1623,19415.709,26517.5137,1.59740089182,-12.9224474157,0,0,
3247,3247,1.6235000,160442,1623,19419.6758,26514.3887,5.53777287303,-11.4869209342,0,0,
3248,3248,1.6240000,160443,1624,19420.6387,26503.209,5.13748958579,-16.6588668736,0,0,
3249,3249,1.6245000,160443,1624,19413.7871,26502.4863,-0.639119939704,-13.2821004066,0,0,
3250,3250,1.6250000,160444,1625,19408.0156,26506.9355,-5.15367856233,-6.23709713368,0,0,
3251,3251,1.6255000,160444,1625,19412.3438,26510.1797,-0.65107690343,-3.00837133253,0,0,
3252,3252,1.6260000,160445,1626,19415.9492,26496.7188,1.53297204905,-14.4659105447,0,0,
3253,3253,1.6265000,160445,1626,19414.1465,26492.5098,0.49113641597,-15.9844309566,0,0,
3254,3254,1.6270000,160446,1627,19407.8965,26502.7285,-3.02314945618,-3.98686965931,0,0,
3255,3255,1.6275000,160446,1627,19403.209,26522.8027,-7.21705737695,16.6080304921,0,0,
3256,3256,1.6280000,160447,1628,19402.127,26524.3652,-6.95971558032,17.7179030167,0,0,
3257,3257,1.6285000,160447,1628,19400.084,26526.2891,-7.07760702563,17.7914383164,0,0,
3258,3258,1.6290000,160448,1629,19397.1973,26520.0371,-7.79686502936,9.33106596217,0,0,
3259,3259,1.6295000,160448,1629,19397.9199,26508.9785,-4.48743086095,0.536640015927,0,0,
3260,3260,1.6300000,160449,1630,19397.3184,26492.2715,-3.60383140952,-10.3012519835,0,0,
3261,3261,1.6305000,160449,1630,19399.2402,26490.1074,-0.374490409525,-6.69834667561,0,0,
3262,3262,1.6310000,160450,1631,19399.6016,26492.873,0.67814108613,0.996892810393,0,0,
3263,3263,1.6315000,160450,1631,19397.5586,26507.1777,0.89447435731,15.2124131262,0,0,
3264,3264,1.6320000,160451,1632,19393.9512,26523.8828,-0.960485514733,26.3333988222,0,0,
3265,3265,1.6325000,160451,1632,19393.4707,26523.1641,-0.419151442271,18.725507547,0,0,
3266,3266,1.6330000,160452,1633,19391.0684,26518.7168,-0.994465396903,10.392332372,0,0,
3267,3267,1.6335000,160452,1633,19395.6348,26517.2734,3.61191156083,7.04528998449,0,0,
3268,3268,1.6340000,160453,1634,19391.1875,26521.4785,-0.955982342095,11.0338011085,0,0,
3269,3269,1.6345000,160453,1634,19393.9512,26521,3.23284395723,10.8432958001,0,0,
3270,3270,1.6350000,160454,1635,19397.0781,26532.1777,6.49261330431,18.8028526633,0,0,
3271,3271,1.6355000,160454,1635,19395.877,26530.8574,5.53990074556,14.4353857193,0,0,
3272,3272,1.6360000,160455,1636,19393.4707,26522.4434,3.61657766061,4.13242074138,0,0,
3273,3273,1.6365000,160455,1636,19393.4707,26512.1035,2.97777460939,-4.39282417686,0,0,
3274,3274,1.6370000,160456,1637,19389.9863,26508.498,2.3509542121,-5.27794985658,0,0,
3275,3275,1.6375000,160456,1637,19388.7832,26509.0996,3.15755779996,-2.21720056403,0,0,
3276,3276,1.6380000,160457,1638,19383.2539,26514.0293,0.333659356612,1.16924667574,0,0,
3277,3277,1.6385000,160457,1638,19382.4121,26518.3535,1.03692543394,4.84172092368,0,0,
3278,3278,1.6390000,160458,1639,19381.5723,26519.5566,1.23401349504,5.45382930335,0,0,
3279,3279,1.6395000,160458,1639,19381.0918,26516.3125,2.29007298754,-1.75484909751,0,0,
3280,3280,1.6400000,160459,1640,19380.7305,26513.3066,4.27657670066,-8.96376889115,0,0,
3281,3281,1.6405000,160459,1640,19375.6816,26516.0703,0.484077436324,-7.82160377945,0,0,
3282,3282,1.6410000,160460,1641,19377.8457,26520.1582,4.36150807878,-4.75920556659,0,0,
3283,3283,1.6415000,160460,1641,19378.2051,26515.8301,4.43882358558,-7.94840719636,0,0,
3284,3284,1.6420000,160461,1642,19375.5605,26517.752,2.82988423538,-6.61158555818,0,0,
3285,3285,1.6425000,160461,1642,19377.0039,26515.9512,4.43966678738,-7.03430748735,0,0,
3286,3286,1.6430000,160462,1643,19373.2773,26516.6719,1.90114061918,-4.990956777,0,0,
3287,3287,1.6435000,160462,1643,19372.5566,26516.0703,2.47153230122,-2.4094581521,0,0,
3288,3288,1.6440000,160463,1644,19375.4414,26516.4316,5.56268204959,1.7370429618,0,0,
3289,3289,1.6445000,160463,1644,19379.6484,26515.9512,11.1424733946,1.62127719726,0,0,
3290,3290,1.6450000,160464,1645,19384.0957,26513.1855,14.9097764798,-1.3388677877,0,0,
3291,3291,1.6455000,160464,1645,19381.4512,26511.3828,10.2484310632,-4.05213084389,0,0,
3292,3292,1.6460000,160465,1646,19377.123,26515.1094,4.42139579734,0.447048199225,0,0,
3293,3293,1.6465000,160465,1646,19371.1152,26517.752,0.500199446284,1.52344218611,0,0,
3294,3294,1.6470000,160466,1647,19367.2676,26522.2012,0.587595738351,2.33486367512,0,0,
3295,3295,1.6475000,160466,1647,19361.2578,26523.6426,-3.44373186101,1.10188164476,0,0,
3296,3296,1.6480000,160467,1648,19362.8203,26528.9316,-0.606831041764,5.9502049146,0,0,
3297,3297,1.6485000,160467,1648,19366.1855,26529.1719,3.57387238662,4.89393742164,0,0,
3298,3298,1.6490000,160468,1649,19368.5898,26530.7344,6.17394339977,4.99520163247,0,0,
3299,3299,1.6495000,160468,1649,19363.9023,26524.8457,2.488801518,1.30144138588,0,0,
3300,3300,1.6500000,160469,1650,19362.8203,26520.1582,1.94629768835,0.71224583831,0,0,
3301,3301,1.6505000,160469,1650,19365.2246,26521.4785,4.16989996925,2.84732037707,0,0,
3302,3302,1.6510000,160470,1651,19363.4199,26517.0312,2.47412585832,-0.550989036469,0,0,
3303,3303,1.6515000,160470,1651,19359.4551,26515.9512,0.728593470523,-3.60051919026,0,0,
3304,3304,1.6520000,160471,1652,19353.5645,26516.0703,-2.62261584724,-7.0779202822,0,0,
3305,3305,1.6525000,160471,1652,19357.8926,26515.2285,2.00331733963,-9.31470036591,0,0,
3306,3306,1.6530000,160472,1653,19357.291,26510.541,2.39461604048,-12.5472273219,0,0,
3307,3307,1.6535000,160472,1653,19352.3613,26507.1777,-2.47974639096,-13.448724456,0,0,
3308,3308,1.6540000,160473,1654,19360.416,26497.6797,4.77900704138,-17.97098799,0,0,
3309,3309,1.6545000,160473,1654,19361.1367,26495.0371,4.97056744832,-14.4484979687,0,0,
3310,3310,1.6550000,160474,1655,19358.9746,26502.4863,2.29283021683,-5.8902131706,0,0,
3311,3311,1.6555000,160474,1655,19356.209,26515.4688,0.26903540888,7.45519434189,0,0,
3312,3312,1.6560000,160475,1656,19355.7285,26515.1094,0.529707339393,7.92764375873,0,0,
3313,3313,1.6565000,160475,1656,19354.5254,26509.2188,-1.09874209406,5.21056107726,0,0,
3314,3314,1.6570000,160476,1657,19355.6074,26502.4863,2.12707639052,1.58441104753,0,0,
3315,3315,1.6575000,160476,1657,19353.4434,26497.6797,1.20998108035,-0.200117715627,0,0,
3316,3316,1.6580000,160477,1658,19352.8438,26493.2324,2.37576437758,-4.03795007692,0,0,
3317,3317,1.6585000,160477,1658,19355.9688,26493.9531,4.74687242842,-1.51793049597,0,0,
3318,3318,1.6590000,160478,1659,19352.7227,26498.7598,1.02272758266,4.66874612341,0,0,
3319,3319,1.6595000,160478,1659,19349.5977,26503.4512,-1.58226138009,7.10880688606,0,0,
3320,3320,1.6600000,160479,1660,19344.3086,26508.377,-4.67435828148,7.87264890425,0,0,
3321,3321,1.6605000,160479,1660,19347.4336,26499.4824,-0.867067945881,-1.98251200936,0,0,
3322,3322,1.6610000,160480,1661,19349.1172,26507.6562,0.625327203488,4.47731524395,0,0,
3323,3323,1.6615000,160480,1661,19348.877,26516.4316,-0.772275721428,12.3406779973,0,0,
3324,3324,1.6620000,160481,1662,19353.2031,26525.4473,2.81427814016,16.5961726167,0,0,
3325,3325,1.6625000,160481,1662,19351.041,26526.4082,-0.669802790706,14.9114791991,0,0,
3326,3326,1.6630000,160482,1663,19347.1934,26530.375,-3.7813165433,15.41552581,0,0,
3327,3327,1.6635000,160482,1663,19345.3906,26531.6973,-5.02210500865,15.0693447613,0,0,
3328,3328,1.6640000,160483,1664,19345.1504,26531.8184,-5.57506166301,14.2859208422,0,0,
3329,3329,1.6645000,160483,1664,19341.7852,26531.8184,-7.07259049236,11.1427071284,0,0,
3330,3330,1.6650000,160484,1665,19339.9824,26532.5391,-7.57943237618,8.4491615055,0,0,
3331,3331,1.6655000,160484,1665,19340.2207,26528.9316,-6.4555784376,1.44193475377,0,0,
3332,3332,1.6660000,160485,1666,19341.1836,26529.0527,-5.05431336806,-0.553786192479,0,0,
3333,3333,1.6665000,160485,1666,19341.6641,26528.2109,-2.25893251542,-4.20069063313,0,0,
3334,3334,1.6670000,160486,1667,19340.4629,26526.4082,-0.550197310905,-9.42689317834,0,0,
3335,3335,1.6675000,160486,1667,19333.1309,26529.0527,-5.69384899677,-9.01909541549,0,0,
3336,3336,1.6680000,160487,1668,19332.5293,26531.9375,-5.68706849425,-6.86093226778,0,0,
3337,3337,1.6685000,160487,1668,19332.0488,26530.375,-5.48890319834,-8.44861120582,0,0,
3338,3338,1.6690000,160488,1669,19333.8516,26528.2109,-3.21482529105,-10.3529438116,0,0,
3339,3339,1.6695000,160488,1669,19336.0137,26528.4512,0.129089283176,-6.73169941118,0,0,
3340,3340,1.6700000,160489,1670,19333.7305,26526.0469,-1.75375065674,-4.92771816521,0,0,
3341,3341,1.6705000,160489,1670,19333.0098,26523.2832,-2.68088279523,-6.47285459283,0,0,
3342,3342,1.6710000,160490,1671,19333.9707,26521.8418,-1.37424450498,-5.94496332994,0,0,
3343,3343,1.6715000,160490,1671,19334.332,26521,0.658330694548,-7.92940255672,0,0,
3344,3344,1.6720000,160491,1672,19331.6875,26521.8418,-0.168694880204,-9.88165564367,0,0,
3345,3345,1.6725000,160491,1672,19329.4043,26522.9219,-3.02607212367,-9.98308341463,0,0,
3346,3346,1.6730000,160492,1673,19328.4414,26520.6387,-2.8797114722,-10.7911678935,0,0,
3347,3347,1.6735000,160492,1673,19324.4746,26524.0059,-5.75594974251,-6.61705759594,0,0,
3348,3348,1.6740000,160493,1674,19323.3926,26530.375,-7.24953901721,0.953912422326,0,0,
3349,3349,1.6745000,160493,1674,19319.3066,26532.1777,-9.23304964593,3.16942752522,0,0,
3350,3350,1.6750000,160494,1675,19320.8691,26531.2168,-5.92711742546,-1.22211467853,0,0,
3351,3351,1.6755000,160494,1675,19324.2344,26531.8184,-1.04376862949,-2.95915864829,0,0,
3352,3352,1.6760000,160495,1676,19325.6777,26531.4551,1.05393198942,-2.44298775482,0,0,
3353,3353,1.6765000,160495,1676,19324.1152,26532.7793,-0.539977524279,1.4346329076,0,0,
3354,3354,1.6770000,160496,1677,19322.3105,26523.7637,-0.217612497022,-4.24844504188,0,0,
3355,3355,1.6775000,160496,1677,19321.2305,26511.2637,0.526685971436,-12.213607515,0,0,
3356,3356,1.6780000,160497,1678,19318.1035,26505.4922,-0.212317492449,-15.190801667,0,0,
3357,3357,1.6785000,160497,1678,19320.1484,26506.9355,1.59675188337,-11.2500628223,0,0,
3358,3358,1.6790000,160498,1679,19320.1484,26506.334,2.15872797123,-9.50504704751,0,0,
3359,3359,1.6795000,160498,1679,19321.2305,26512.2246,3.72767232045,-4.51093522281,0,0,
3360,3360,1.6800000,160499,1680,19320.3887,26514.0293,4.34398872761,-4.68531658775,0,0,
3361,3361,1.6805000,160499,1680,19317.2637,26514.627,1.12085709516,-2.72571865922,0,0,
3362,3362,1.6810000,160500,1681,19315.3398,26514.9902,-0.574313440162,-3.55499934517,0,0,
3363,3363,1.6815000,160500,1681,19310.8926,26515.7109,-4.40540539944,-2.07368301468,0,0,
3364,3364,1.6820000,160501,1682,19307.5273,26516.1895,-6.39486891471,-2.57449187099,0,0,
