record_index,sequence,time_s,tick_ms,tick_elapsed_ms,ch1_raw_uV,ch2_raw_uV,ch1_filtered_uV,ch2_filtered_uV,sequence_gap_before,byte_offset_adjustment,imputed_fields
2000,2000,1.0000000,47175,1000,9965.74902,19199.9453,8.7724909035,-11.2449986826,0,0,
2001,2001,1.0005000,47175,1000,9961.18066,19199.1035,4.58081404479,-10.3720807044,0,0,
2002,2002,1.0010000,47176,1001,9958.41699,19201.3887,2.00722332837,-3.84246187586,0,0,
2003,2003,1.0015000,47176,1001,9958.53711,19203.9121,1.44536047938,2.3141212905,0,0,
2004,2004,1.0020000,47177,1002,9956.85449,19203.6719,0.274111016704,4.36881290863,0,0,
2005,2005,1.0025000,47177,1002,9955.41113,19206.918,-0.768944938801,5.82703185476,0,0,
2006,2006,1.0030000,47178,1003,9957.45508,19206.6777,1.37231691673,4.59261425163,0,0,
2007,2007,1.0035000,47178,1003,9957.5752,19206.918,0.865753303991,5.04870773176,0,0,
2008,2008,1.0040000,47179,1004,9954.81055,19205.3535,-0.411108187585,4.79825506041,0,0,
2009,2009,1.0045000,47179,1004,9954.57031,19204.9941,0.121942487995,2.85061460986,0,0,
2010,2010,1.0050000,47180,1005,9958.77734,19202.5898,5.2726255697,0.154223435457,0,0,
2011,2011,1.0055000,47180,1005,9958.53711,19198.9844,4.93451028388,-2.80057898471,0,0,
2012,2012,1.0060000,47181,1006,9956.97363,19195.377,3.71060374534,-6.3224601154,0,0,
2013,2013,1.0065000,47181,1006,9957.81543,19198.623,4.21300724112,-1.91047190659,0,0,
2014,2014,1.0070000,47182,1007,9955.77246,19199.8262,1.76998536446,1.82785034104,0,0,
2015,2015,1.0075000,47182,1007,9953.24805,19197.541,-0.351606067047,2.70244282146,0,0,
2016,2016,1.0080000,47183,1008,9955.05078,19199.4648,1.9409547584,5.73733178409,0,0,
2017,2017,1.0085000,47183,1008,9953.48828,19200.7871,1.19370040406,6.51946674234,0,0,
2018,2018,1.0090000,47184,1009,9957.5752,19202.2285,4.69246979333,7.47768423713,0,0,
2019,2019,1.0095000,47184,1009,9957.21484,19203.5527,3.38174834621,8.80031569377,0,0,
2020,2020,1.0100000,47185,1010,9956.0127,19205.5957,1.16822369853,11.6570349444,0,0,
2021,2021,1.0105000,47185,1010,9957.93555,19207.2773,2.70752915534,10.2704926981,0,0,
2022,2022,1.0110000,47186,1011,9958.05566,19209.3223,1.65263174288,8.70284029028,0,0,
2023,2023,1.0115000,47186,1011,9958.41699,19213.0488,2.52848953244,10.6463996948,0,0,
2024,2024,1.0120000,47187,1012,9953.96973,19212.2051,-2.4737712119,7.08623266651,0,0,
2025,2025,1.0125000,47187,1012,9953.48828,19211.0039,-1.50680549859,2.76006454431,0,0,
2026,2026,1.0130000,47188,1013,9956.85449,19211.3652,1.6589903401,3.67350285834,0,0,
2027,2027,1.0135000,47188,1013,9953.24805,19206.3164,-2.29577725084,2.73209620058,0,0,
2028,2028,1.0140000,47189,1014,9947.59863,19205.3535,-5.9896057591,5.82187065962,0,0,
2029,2029,1.0145000,47189,1014,9944.1123,19201.9902,-7.30933618237,4.46148027017,0,0,
2030,2030,1.0150000,47190,1015,9942.79004,19196.0996,-5.32141101588,-2.36482459559,0,0,
2031,2031,1.0155000,47190,1015,9943.15137,19198.2637,-2.49551627419,-2.7769450385,0,0,
2032,2032,1.0160000,47191,1016,9944.35254,19198.502,0.0571390476607,-5.56097881082,0,0,
2033,2033,1.0165000,47191,1016,9940.86719,19202.8301,-0.939383370015,-2.91140913556,0,0,
2034,2034,1.0170000,47192,1017,9938.82324,19202.9512,-1.70179479187,-3.43247006207,0,0,
2035,2035,1.0175000,47192,1017,9933.89551,19202.5898,-4.00532276511,-4.15773742969,0,0,
2036,2036,1.0180000,47193,1018,9939.06348,19200.5469,2.0305820883,-5.56646619396,0,0,
2037,2037,1.0185000,47193,1018,9940.74707,19191.4121,4.35213561707,-13.2338636541,0,0,
2038,2038,1.0190000,47194,1019,9940.9873,19183.1172,4.82964873914,-17.6809098191,0,0,
2039,2039,1.0195000,47194,1019,9940.62695,19181.916,6.18185963372,-17.06933024,0,0,
2040,2040,1.0200000,47195,1020,9939.06348,19182.0352,2.99324521049,-15.0742303914,0,0,
2041,2041,1.0205000,47195,1020,9937.14062,19186.9629,3.16532549093,-8.00990871473,0,0,
2042,2042,1.0210000,47196,1021,9931.73145,19195.0176,-0.275804874434,2.3047792047,0,0,
2043,2043,1.0215000,47196,1021,9929.08691,19197.9023,-1.86063163191,6.84948574276,0,0,
2044,2044,1.0220000,47197,1022,9928.60645,19201.0273,-0.40842612257,10.5015524558,0,0,
2045,2045,1.0225000,47197,1022,9929.68848,19198.2637,1.79989330634,5.56713086731,0,0,
2046,2046,1.0230000,47198,1023,9928.24609,19195.9785,1.09698138798,2.83125075199,0,0,
2047,2047,1.0235000,47198,1023,9925.12012,19191.4121,-1.00734156099,-0.449289999165,0,0,
2048,2048,1.0240000,47199,1024,9924.15918,19192.4941,0.751183456622,2.49145213461,0,0,
2049,2049,1.0245000,47199,1024,9923.67871,19190.6895,1.77772256564,0.175859447191,0,0,
2050,2050,1.0250000,47200,1025,9926.08203,19189.3672,5.10421512261,-0.52936806138,0,0,
2051,2051,1.0255000,47200,1025,9925.36035,19191.1699,5.29511715458,1.75040079553,0,0,
2052,2052,1.0260000,47201,1026,9924.75977,19191.4121,5.85734526272,1.30298159523,0,0,
2053,2053,1.0265000,47201,1026,9926.32227,19188.4062,7.26363849479,-1.59689410207,0,0,
2054,2054,1.0270000,47202,1027,9925.72168,19189.4883,6.64845855173,1.11857870215,0,0,
2055,2055,1.0275000,47202,1027,9926.32227,19193.9355,7.28481431025,7.08424688914,0,0,
2056,2056,1.0280000,47203,1028,9925.60156,19198.623,6.27164260729,10.3824418662,0,0,
2057,2057,1.0285000,47203,1028,9922.11523,19197.541,3.76919583457,7.3673893501,0,0,
2058,2058,1.0290000,47204,1029,9920.19238,19194.7773,1.65339805569,3.63825173376,0,0,
2059,2059,1.0295000,47204,1029,9921.03418,19191.0508,2.50096308033,0.37410697949,0,0,
2060,2060,1.0300000,47205,1030,9924.2793,19187.2051,4.85248731242,-1.42674088379,0,0,
2061,2061,1.0305000,47205,1030,9923.07715,19182.7559,3.17471583143,-5.83272939281,0,0,
2062,2062,1.0310000,47206,1031,9923.07715,19188.2871,2.36287730523,-1.74003155771,0,0,
2063,2063,1.0315000,47206,1031,9923.55762,19195.6191,3.21020340101,4.34825909727,0,0,
2064,2064,1.0320000,47207,1032,9920.19238,19208.1191,0.0520543606469,13.0690899858,0,0,
2065,2065,1.0325000,47207,1032,9921.63477,19209.5605,2.06209531577,10.1124768543,0,0,
2066,2066,1.0330000,47208,1033,9922.11523,19196.9395,1.57368109944,-1.55657496155,0,0,
2067,2067,1.0335000,47208,1033,9924.15918,19185.7617,2.80408613903,-6.69959693777,0,0,
2068,2068,1.0340000,47209,1034,9925.60156,19189.8496,4.36388671447,1.38125112297,0,0,
2069,2069,1.0345000,47209,1034,9924.03809,19194.8965,2.47733513768,7.56332206785,0,0,
2070,2070,1.0350000,47210,1035,9921.51465,19204.9941,0.579131248824,13.9545877378,0,0,
2071,2071,1.0355000,47210,1035,9923.07715,19207.3984,1.72893211231,10.0682069035,0,0,
2072,2072,1.0360000,47211,1036,9922.59668,19202.1094,0.330187135383,0.0189045052986,0,0,
2073,2073,1.0365000,47211,1036,9919.83105,19202.4707,-1.45067575891,-3.09167593644,0,0,
2074,2074,1.0370000,47212,1037,9919.35059,19203.9121,-2.32340570286,-3.51831899318,0,0,
2075,2075,1.0375000,47212,1037,9922.7168,19204.2734,0.894259281363,-4.66161501443,0,0,
2076,2076,1.0380000,47213,1038,9919.71191,19201.8691,-3.77091337342,-7.17545849869,0,0,
2077,2077,1.0385000,47213,1038,9920.43262,19208.1191,-3.8078322949,-1.75747389568,0,0,
2078,2078,1.0390000,47214,1039,9921.875,19214.6113,-3.23734753581,3.18998412053,0,0,
2079,2079,1.0395000,47214,1039,9924.15918,19216.5332,-0.887553804683,0.611895457943,0,0,
2080,2080,1.0400000,47215,1040,9926.32227,19208.3594,-1.59717182594,-9.91217239181,0,0,
2081,2081,1.0405000,47215,1040,9927.4043,19196.459,-0.679798320707,-21.1134171346,0,0,
2082,2082,1.0410000,47216,1041,9925.12012,19193.5742,-2.82176866476,-21.5408114493,0,0,
2083,2083,1.0415000,47216,1041,9925.36035,19193.2148,-3.94171446744,-18.3177168423,0,0,
2084,2084,1.0420000,47217,1042,9926.56348,19192.1328,-3.79211583699,-16.111249347,0,0,
2085,2085,1.0425000,47217,1042,9925.24121,19197.6621,-6.2691373357,-10.0989459713,0,0,
2086,2086,1.0430000,47218,1043,9925.8418,19192.1328,-6.69658144037,-13.3208099354,0,0,
2087,2087,1.0435000,47218,1043,9928.9668,19186.7246,-4.92240807522,-14.538754406,0,0,
2088,2088,1.0440000,47219,1044,9928.60645,19179.3906,-5.41725805058,-16.8846551862,0,0,
2089,2089,1.0445000,47219,1044,9931.37109,19181.0742,-4.07139525268,-12.4926284352,0,0,
2090,2090,1.0450000,47220,1045,9929.68848,19182.0352,-6.98788994102,-8.70141044074,0,0,
2091,2091,1.0455000,47220,1045,9930.40918,19183.8379,-6.82079530122,-4.98892099282,0,0,
2092,2092,1.0460000,47221,1046,9929.08691,19187.5645,-8.05705064247,-0.801058290457,0,0,
2093,2093,1.0465000,47221,1046,9930.16895,19189.4883,-8.00314604867,1.83458171478,0,0,
2094,2094,1.0470000,47222,1047,9927.04395,19197.4219,-10.8628338239,9.54232325027,0,0,
2095,2095,1.0475000,47222,1047,9929.32715,19197.541,-8.67503286221,9.65402836265,0,0,
2096,2096,1.0480000,47223,1048,9930.40918,19196.8203,-7.84982670166,7.68475446994,0,0,
2097,2097,1.0485000,47223,1048,9930.53027,19197.6621,-6.91081603858,7.59801459027,0,0,
2098,2098,1.0490000,47224,1049,9931.01074,19193.5742,-7.08932848741,3.93272015865,0,0,
2099,2099,1.0495000,47224,1049,9933.77539,19188.6465,-5.49191586331,0.950388237456,0,0,
2100,2100,1.0500000,47225,1050,9934.85645,19186.002,-6.07646520359,1.23172379945,0,0,
2101,2101,1.0505000,47225,1050,9935.21777,19185.2812,-6.22632143896,1.19499372167,0,0,
2102,2102,1.0510000,47226,1051,9934.97754,19188.166,-7.22313939566,2.0914475347,0,0,
2103,2103,1.0515000,47226,1051,9936.66016,19191.7715,-5.49819993806,4.20239055089,0,0,
2104,2104,1.0520000,47227,1052,9933.65527,19198.7441,-7.67957827176,7.58930703711,0,0,
2105,2105,1.0525000,47227,1052,9933.29395,19204.3926,-7.38212050279,10.3946790571,0,0,
2106,2106,1.0530000,47228,1053,9932.57324,19199.7051,-8.11399279949,8.32827244394,0,0,
2107,2107,1.0535000,47228,1053,9933.53418,19200.0664,-7.07097957821,12.856860398,0,0,
2108,2108,1.0540000,47229,1054,9934.85645,19199.7051,-4.73988448731,13.0637868115,0,0,
2109,2109,1.0545000,47229,1054,9935.33789,19196.2188,-3.3621435515,9.52736748652,0,0,
2110,2110,1.0550000,47230,1055,9934.61621,19198.9844,-2.5378453004,8.79151612731,0,0,
2111,2111,1.0555000,47230,1055,9932.45312,19197.7832,-4.01402119236,4.15508208821,0,0,
2112,2112,1.0560000,47231,1056,9932.57324,19201.0273,-3.31815325109,4.86590882937,0,0,
2113,2113,1.0565000,47231,1056,9933.05371,19198.0215,-0.925718357376,-0.195438507244,0,0,
2114,2114,1.0570000,47232,1057,9939.30469,19199.584,4.40471582344,0.243847500924,0,0,
2115,2115,1.0575000,47232,1057,9943.27051,19192.4941,6.90625730527,-6.10202935359,0,0,
2116,2116,1.0580000,47233,1058,9944.83398,19188.7676,6.37873256931,-7.38437026444,0,0,
2117,2117,1.0585000,47233,1058,9940.14551,19186.4824,0.846157661607,-8.15595067569,0,0,
2118,2118,1.0590000,47234,1059,9935.21777,19191.0508,-3.80910859448,-2.71644474325,0,0,
2119,2119,1.0595000,47234,1059,9935.09766,19193.9355,-2.64790523036,-0.988547947137,0,0,
2120,2120,1.0600000,47235,1060,9934.61621,19180.4727,-3.7415049961,-11.1799579484,0,0,
2121,2121,1.0605000,47235,1060,9936.66016,19175.0645,-0.273505851229,-11.8436561238,0,0,
2122,2122,1.0610000,47236,1061,9930.04883,19186.6035,-3.81974002555,0.8861932346,0,0,
2123,2123,1.0615000,47236,1061,9920.19238,19192.373,-10.5673728049,7.04259915875,0,0,
2124,2124,1.0620000,47237,1062,9921.27441,19178.3086,-6.71236251981,-4.03548678806,0,0,
2125,2125,1.0625000,47237,1062,9927.28418,19156.5527,0.673434529707,-21.1591885069,0,0,
2126,2126,1.0630000,47238,1063,9929.56836,19141.8887,3.47405996001,-26.3247068458,0,0,
2127,2127,1.0635000,47238,1063,9930.77051,19144.4121,4.61072323307,-15.1701396991,0,0,
2128,2128,1.0640000,47239,1064,9933.89551,19142.0078,8.4599522573,-9.47224823365,0,0,
2129,2129,1.0645000,47239,1064,9939.4248,19141.7676,12.3789924806,-5.33376935566,0,0,
2130,2130,1.0650000,47240,1065,9951.56543,19142.9707,21.1981458443,0.00977075173531,0,0,
2131,2131,1.0655000,47240,1065,9958.89746,19143.5703,24.1710545323,3.68350552294,0,0,
2132,2132,1.0660000,47241,1066,9958.17676,19157.1543,20.2326754126,16.4891289588,0,0,
2133,2133,1.0665000,47241,1066,9954.57031,19185.7617,13.2742402534,39.5189674286,0,0,
2134,2134,1.0670000,47242,1067,9952.0459,19213.7676,9.38412980359,56.4427806634,0,0,
2135,2135,1.0675000,47242,1067,9951.80566,19235.2852,7.08122674201,65.2650024971,0,0,
2136,2136,1.0680000,47243,1068,9949.16113,19241.416,3.3562528964,57.7323773613,0,0,
2137,2137,1.0685000,47243,1068,9951.2041,19240.6934,5.04654638241,44.8593969802,0,0,
2138,2138,1.0690000,47244,1069,9949.16113,19228.1934,1.97104289056,25.1021149183,0,0,
2139,2139,1.0695000,47244,1069,9947.11816,19225.0684,-1.01449520421,16.6807405709,0,0,
2140,2140,1.0700000,47245,1070,9949.40137,19223.9863,-0.0377020541729,11.2006384921,0,0,
2141,2141,1.0705000,47245,1070,9948.55957,19226.5098,-0.942960939288,7.37680158561,0,0,
2142,2142,1.0710000,47246,1071,9946.87695,19219.418,-2.55670092473,-6.11481601617,0,0,
2143,2143,1.0715000,47246,1071,9949.16113,19212.5664,-0.180260244473,-16.4655702745,0,0,
2144,2144,1.0720000,47247,1072,9950.4834,19204.7539,1.88231762669,-26.8915676308,0,0,
2145,2145,1.0725000,47247,1072,9944.83398,19198.9844,-2.66419157089,-32.1608015427,0,0,
2146,2146,1.0730000,47248,1073,9942.06934,19193.2148,-4.48075419857,-30.982575589,0,0,
2147,2147,1.0735000,47248,1073,9942.79004,19196.2188,-3.16887268862,-21.59781918,0,0,
2148,2148,1.0740000,47249,1074,9945.6748,19205.5957,0.533155746096,-10.645609234,0,0,
2149,2149,1.0745000,47249,1074,9945.19434,19206.7969,1.04611389413,-8.62840473834,0,0,
2150,2150,1.0750000,47250,1075,9945.43457,19210.5234,2.75216857121,-8.1891928558,0,0,
2151,2151,1.0755000,47250,1075,9950.00293,19209.8027,7.00659212198,-11.3075452017,0,0,
2152,2152,1.0760000,47251,1076,9947.59863,19207.5176,4.28568545184,-14.9840685368,0,0,
2153,2153,1.0765000,47251,1076,9947.59863,19206.4355,5.07090881414,-16.1765160935,0,0,
2154,2154,1.0770000,47252,1077,9949.04102,19210.2832,4.80981114588,-13.052958966,0,0,
2155,2155,1.0775000,47252,1077,9943.3916,19217.375,-0.71924029123,-6.13525760173,0,0,
2156,2156,1.0780000,47253,1078,9949.88184,19220.5,4.65276227493,-3.52550037533,0,0,
2157,2157,1.0785000,47253,1078,9951.2041,19214.9707,5.78524227709,-9.51874080258,0,0,
2158,2158,1.0790000,47254,1079,9952.64746,19209.3223,6.70166522046,-15.1848889021,0,0,
2159,2159,1.0795000,47254,1079,9953.36816,19211.125,6.65642049354,-14.3262400211,0,0,
2160,2160,1.0800000,47255,1080,9952.52637,19212.8066,3.81129816428,-9.59856978706,0,0,
2161,2161,1.0805000,47255,1080,9952.52637,19205.9551,3.4249824576,-13.2374249875,0,0,
2162,2162,1.0810000,47256,1081,9954.57031,19211.9668,6.53698943936,-8.90331237868,0,0,
2163,2163,1.0815000,47256,1081,9951.80566,19216.5332,4.3846982016,-5.05759408676,0,0,
2164,2164,1.0820000,47257,1082,9955.05078,19222.4238,5.68411141035,2.47191590593,0,0,
2165,2165,1.0825000,47257,1082,9952.16602,19218.2168,0.864619403541,-0.141803535507,0,0,
2166,2166,1.0830000,47258,1083,9953.48828,19220.1387,0.717858190358,3.38261765027,0,0,
2167,2167,1.0835000,47258,1083,9952.0459,19216.7734,-1.76260039766,-0.332739086236,0,0,
2168,2168,1.0840000,47259,1084,9952.7666,19211.125,-1.28027570515,-4.18746937606,0,0,
2169,2169,1.0845000,47259,1084,9955.89258,19213.5293,-0.233483215009,-3.12993278869,0,0,
2170,2170,1.0850000,47260,1085,9955.53223,19209.8027,-2.9593275342,-6.96530230072,0,0,
2171,2171,1.0855000,47260,1085,9958.53711,19207.8789,-1.57425160756,-8.62622242963,0,0,
2172,2172,1.0860000,47261,1086,9952.64746,19210.1621,-5.86029721215,-9.0997067374,0,0,
2173,2173,1.0865000,47261,1086,9956.0127,19208.3594,-2.18817414282,-14.3901352218,0,0,
2174,2174,1.0870000,47262,1087,9956.49316,19204.873,-0.890233622128,-19.8843281622,0,0,
2175,2175,1.0875000,47262,1087,9955.05078,19205.7148,-2.47701640681,-18.0171131124,0,0,
2176,2176,1.0880000,47263,1088,9953.24805,19202.9512,-3.49527718779,-17.0741030113,0,0,
2177,2177,1.0885000,47263,1088,9953.84863,19200.4258,-2.35745994959,-14.4782161453,0,0,
2178,2178,1.0890000,47264,1089,9952.0459,19196.8203,-3.53992722799,-9.89070080722,0,0,
2179,2179,1.0895000,47264,1089,9952.8877,19198.9844,-2.71588813811,-2.14897278497,0,0,
2180,2180,1.0900000,47265,1090,9956.0127,19208.8418,-1.02394375369,10.4145916821,0,0,
2181,2181,1.0905000,47265,1090,9956.85449,19217.7363,-0.365218051896,17.7358547909,0,0,
2182,2182,1.0910000,47266,1091,9960.33984,19226.2695,2.19733929675,23.0095828561,0,0,
2183,2183,1.0915000,47266,1091,9958.41699,19237.4492,-0.522418779549,29.4593761684,0,0,
2184,2184,1.0920000,47267,1092,9956.85449,19238.4102,-1.58675469329,25.0525593554,0,0,
2185,2185,1.0925000,47267,1092,9953.24805,19231.5586,-3.42054948291,15.4618948906,0,0,
2186,2186,1.0930000,47268,1093,9958.53711,19223.1445,1.3590213803,10.2816252098,0,0,
2187,2187,1.0935000,47268,1093,9957.81543,19223.0254,-0.42511765112,12.0158379955,0,0,
2188,2188,1.0940000,47269,1094,9959.85938,19215.6934,0.595472533201,4.84434350208,0,0,
2189,2189,1.0945000,47269,1094,9960.21973,19197.4219,0.708051052617,-8.56485651065,0,0,
2190,2190,1.0950000,47270,1095,9959.1377,19184.0801,-0.013649512077,-18.0440777733,0,0,
2191,2191,1.0955000,47270,1095,9954.93066,19176.627,-4.3580079479,-19.569678798,0,0,
2192,2192,1.0960000,47271,1096,9958.65723,19169.0527,-0.626680335457,-20.0211235837,0,0,
2193,2193,1.0965000,47271,1096,9961.30176,19169.6543,1.92064538036,-12.8501425505,0,0,
2194,2194,1.0970000,47272,1097,9960.33984,19176.2656,-0.857270704088,-2.60371758774,0,0,
2195,2195,1.0975000,47272,1097,9960.33984,19181.3145,-0.835253388494,5.47784422102,0,0,
2196,2196,1.0980000,47273,1098,9958.41699,19189.9688,-4.41672144155,15.8754756738,0,0,
2197,2197,1.0985000,47273,1098,9955.89258,19194.8965,-6.07391032939,21.7298030522,0,0,
2198,2198,1.0990000,47274,1099,9956.7334,19202.8301,-4.64424752477,27.9941376848,0,0,
2199,2199,1.0995000,47274,1099,9960.09961,19202.4707,-1.36021723297,24.1118192046,0,0,
2200,2200,1.1000000,47275,1100,9959.49902,19197.3008,-2.80972553229,19.9300444583,0,0,
2201,2201,1.1005000,47275,1100,9957.09473,19200.9082,-4.52053624867,24.2148610818,0,0,
2202,2202,1.1010000,47276,1101,9956.0127,19197.0605,-3.64315438574,16.5156356077,0,0,
2203,2203,1.1015000,47276,1101,9955.1709,19200.666,-2.42182337647,17.41353836,0,0,
2204,2204,1.1020000,47277,1102,9952.7666,19200.9082,-5.02208941468,17.5430556866,0,0,
2205,2205,1.1025000,47277,1102,9953.6084,19199.7051,-4.03854542613,17.4633092019,0,0,
2206,2206,1.1030000,47278,1103,9955.05078,19200.0664,-3.08496855611,17.8791472015,0,0,
2207,2207,1.1035000,47278,1103,9957.33496,19209.4414,-1.21045402785,24.2160310601,0,0,
2208,2208,1.1040000,47279,1104,9957.93555,19213.5293,-0.823292964488,25.6688597463,0,0,
2209,2209,1.1045000,47279,1104,9956.61426,19208.7207,-3.46260016109,15.8265952257,0,0,
2210,2210,1.1050000,47280,1105,9958.89746,19210.7637,-2.62805803014,14.1500814701,0,0,
2211,2211,1.1055000,47280,1105,9957.33496,19210.7637,-4.88926150098,10.282646931,0,0,
2212,2212,1.1060000,47281,1106,9954.81055,19211.9668,-4.51353175772,4.90170118373,0,0,
2213,2213,1.1065000,47281,1106,9953.6084,19216.5332,-4.90541202077,2.19817683728,0,0,
2214,2214,1.1070000,47282,1107,9958.53711,19214.8496,0.825226286545,-5.17298448561,0,0,
2215,2215,1.1075000,47282,1107,9958.89746,19215.4512,1.21643263748,-8.24605382027,0,0,
2216,2216,1.1080000,47283,1108,9958.77734,19214.3691,1.61051829733,-10.048789024,0,0,
2217,2217,1.1085000,47283,1108,9954.57031,19215.4512,-1.79702889502,-8.8919121322,0,0,
2218,2218,1.1090000,47284,1109,9956.7334,19213.5293,0.893062105833,-7.93173761986,0,0,
2219,2219,1.1095000,47284,1109,9956.37305,19216.1738,0.264676008126,-5.27762459535,0,0,
2220,2220,1.1100000,47285,1110,9957.33496,19218.5762,-0.211251896794,-4.80442772049,0,0,
2221,2221,1.1105000,47285,1110,9959.61816,19207.5176,1.77253251481,-16.8164635889,0,0,
2222,2222,1.1110000,47286,1111,9957.69531,19203.3105,-0.536476658793,-20.8790964603,0,0,
2223,2223,1.1115000,47286,1111,9957.45508,19204.873,-0.399251938206,-19.3896813036,0,0,
2224,2224,1.1120000,47287,1112,9959.61816,19202.2285,2.29172812833,-20.3823365002,0,0,
2225,2225,1.1125000,47287,1112,9961.42188,19195.2578,5.00026570862,-22.591259676,0,0,
2226,2226,1.1130000,47288,1113,9957.81543,19198.3828,0.51165885473,-12.4477160934,0,0,
2227,2227,1.1135000,47288,1113,9958.05566,19201.748,0.410959140741,-5.83753769664,0,0,
2228,2228,1.1140000,47289,1114,9962.14355,19205.1152,3.17711268166,-1.37940356088,0,0,
2229,2229,1.1145000,47289,1114,9960.82129,19207.998,1.81870602858,4.47840665051,0,0,
2230,2230,1.1150000,47290,1115,9958.89746,19207.1582,0.769451251736,2.83040269999,0,0,
2231,2231,1.1155000,47290,1115,9962.02246,19205.4746,3.53346667542,0.354457905227,0,0,
2232,2232,1.1160000,47291,1116,9963.10449,19208.2402,3.35884583501,2.07118864313,0,0,
2233,2233,1.1165000,47291,1116,9962.02246,19209.2012,1.93671198511,0.74211647376,0,0,
2234,2234,1.1170000,47292,1117,9959.37793,19211.0039,-1.37924660439,-1.47273383578,0,0,
2235,2235,1.1175000,47292,1117,9963.22461,19213.4082,2.24809659444,-1.98794075973,0,0,
2236,2236,1.1180000,47293,1118,9963.58496,19211.4844,1.01160845154,-5.89927023114,0,0,
2237,2237,1.1185000,47293,1118,9963.8252,19214.3691,1.30996716057,-4.11532280399,0,0,
2238,2238,1.1190000,47294,1119,9962.86426,19211.9668,-0.036315116271,-7.9903700839,0,0,
2239,2239,1.1195000,47294,1119,9962.02246,19209.9219,-1.41663646133,-10.8959614735,0,0,
2240,2240,1.1200000,47295,1120,9958.41699,19209.6816,-4.78713223057,-8.37964240548,0,0,
2241,2241,1.1205000,47295,1120,9962.74414,19205.7148,-0.0179249247025,-10.0607008181,0,0,
2242,2242,1.1210000,47296,1121,9962.14355,19206.6777,0.521232097206,-9.89096759293,0,0,
2243,2243,1.1215000,47296,1121,9962.86426,19211.2441,2.17982931649,-6.89765851527,0,0,
2244,2244,1.1220000,47297,1122,9959.73926,19214.4902,-1.24997323547,-3.02196473505,0,0,
2245,2245,1.1225000,47297,1122,9962.2627,19214.4902,0.32324649241,-1.26167543593,0,0,
2246,2246,1.1230000,47298,1123,9961.42188,19218.457,-1.54443122398,2.69328353367,0,0,
2247,2247,1.1235000,47298,1123,9961.66211,19218.9375,-1.98787784505,0.753168863525,0,0,
2248,2248,1.1240000,47299,1124,9963.58496,19217.7363,-0.500043586326,-0.461479253416,0,0,
2249,2249,1.1245000,47299,1124,9960.58008,19220.3809,-4.07024181554,0.479116907109,0,0,
2250,2250,1.1250000,47300,1125,9959.97949,19222.6641,-5.51921381092,0.650950937327,0,0,
2251,2251,1.1255000,47300,1125,9964.90723,19221.7012,-1.38725128989,-1.93404912221,0,0,
2252,2252,1.1260000,47301,1126,9961.90234,19213.168,-1.97365818508,-12.6209996814,0,0,
2253,2253,1.1265000,47301,1126,9961.42188,19212.0859,-2.0540297459,-16.2045599852,0,0,
2254,2254,1.1270000,47302,1127,9962.50293,19216.0527,-1.01722359605,-13.6368679829,0,0,
2255,2255,1.1275000,47302,1127,9964.66699,19212.6875,1.05614143874,-16.7068622093,0,0,
2256,2256,1.1280000,47303,1128,9967.79199,19214.4902,3.95514752264,-12.7507036387,0,0,
2257,2257,1.1285000,47303,1128,9960.7002,19221.582,-1.66036168031,-4.69722159804,0,0,
2258,2258,1.1290000,47304,1129,9959.1377,19223.8652,-2.51699473056,0.49332816536,0,0,
2259,2259,1.1295000,47304,1129,9957.09473,19225.0684,-3.70049303879,1.67547913797,0,0,
2260,2260,1.1300000,47305,1130,9959.1377,19223.1445,-2.30204122302,-0.936272382079,0,0,
2261,2261,1.1305000,47305,1130,9960.58008,19225.9082,-0.772638109216,1.8635068096,0,0,
2262,2262,1.1310000,47306,1131,9959.73926,19218.6973,-1.02664262654,-5.09455363514,0,0,
2263,2263,1.1315000,47306,1131,9960.33984,19218.5762,0.205814374189,-5.88155336136,0,0,
2264,2264,1.1320000,47307,1132,9959.73926,19214.25,0.37100992316,-8.25709243302,0,0,
2265,2265,1.1325000,47307,1132,9961.78223,19214.4902,3.42248607092,-4.10041678789,0,0,
2266,2266,1.1330000,47308,1133,9961.90234,19212.6875,3.42929898895,-1.14661070517,0,0,
2267,2267,1.1335000,47308,1133,9959.97949,19214.3691,1.45912658405,2.61516346978,0,0,
2268,2268,1.1340000,47309,1134,9960.58008,19216.5332,1.08913759701,5.38014200705,0,0,
2269,2269,1.1345000,47309,1134,9954.81055,19217.375,-2.76013348573,8.79026029972,0,0,
2270,2270,1.1350000,47310,1135,9957.09473,19218.6973,1.2832073707,9.93746854534,0,0,
2271,2271,1.1355000,47310,1135,9959.85938,19221.1016,3.76248940299,11.5226181937,0,0,
2272,2272,1.1360000,47311,1136,9961.90234,19218.6973,4.94330957938,8.24352599273,0,0,
2273,2273,1.1365000,47311,1136,9963.34473,19216.293,6.13362647251,4.95083074207,0,0,
2274,2274,1.1370000,47312,1137,9962.62402,19212.4473,4.82760082567,-0.35071865835,0,0,
2275,2275,1.1375000,47312,1137,9963.34473,19214.25,4.63557835067,0.634202358912,0,0,
2276,2276,1.1380000,47313,1138,9962.74414,19218.3359,2.89630670545,4.11913649546,0,0,
2277,2277,1.1385000,47313,1138,9960.21973,19221.3418,1.06461602922,6.11592904098,0,0,
2278,2278,1.1390000,47314,1139,9960.82129,19223.3848,1.84714798365,6.97569737597,0,0,
2279,2279,1.1395000,47314,1139,9961.66211,19222.9043,2.32896745326,5.42044974638,0,0,
2280,2280,1.1400000,47315,1140,9964.06641,19219.2988,4.35669901674,3.94151644711,0,0,
2281,2281,1.1405000,47315,1140,9965.98926,19212.5664,5.01202977305,0.231162264912,0,0,
2282,2282,1.1410000,47316,1141,9965.38867,19208.5996,4.75837955263,-3.29585889927,0,0,
2283,2283,1.1415000,47316,1141,9964.90723,19212.8066,4.47476800192,-0.115712138208,0,0,
2284,2284,1.1420000,47317,1142,9966.35059,19211.9668,5.04318553064,0.655035787605,0,0,
2285,2285,1.1425000,47317,1142,9969.47559,19217.6152,5.6158349674,8.12672212336,0,0,
2286,2286,1.1430000,47318,1143,9965.86914,19220.3809,0.741621668966,10.6012895286,0,0,
2287,2287,1.1435000,47318,1143,9964.66699,19220.9805,-1.33526700196,9.54857144233,0,0,
2288,2288,1.1440000,47319,1144,9963.22461,19216.1738,-3.11746718816,5.92948147034,0,0,
2289,2289,1.1445000,47319,1144,9963.94629,19211.6055,-2.60319073034,1.64358236164,0,0,
2290,2290,1.1450000,47320,1145,9962.86426,19210.7637,-4.4883625067,1.13272864484,0,0,
2291,2291,1.1455000,47320,1145,9964.30664,19203.9121,-4.23504109078,-3.54436284667,0,0,
2292,2292,1.1460000,47321,1146,9968.75391,19203.3105,1.70049435955,-2.84307849615,0,0,
2293,2293,1.1465000,47321,1146,9965.98926,19204.5137,-1.15737184106,-2.85128557815,0,0,
2294,2294,1.1470000,47322,1147,9962.98438,19207.998,-4.07540160994,-0.83001764223,0,0,
2295,2295,1.1475000,47322,1147,9963.58496,19210.4043,-3.37069068192,1.65304278673,0,0,
2296,2296,1.1480000,47323,1148,9961.90234,19210.043,-4.37843745225,2.16093334961,0,0,
2297,2297,1.1485000,47323,1148,9963.10449,19219.0566,-0.830815692351,9.56308342197,0,0,
2298,2298,1.1490000,47324,1149,9962.74414,19223.8652,-0.812363205526,14.7650810399,0,0,
2299,2299,1.1495000,47324,1149,9961.30176,19229.3965,-1.72755913749,17.761877986,0,0,
2300,2300,1.1500000,47325,1150,9965.26855,19227.5918,0.415754071552,13.623790341,0,0,
2301,2301,1.1505000,47325,1150,9963.94629,19227.3516,-1.39550562457,11.3770515578,0,0,
2302,2302,1.1510000,47326,1151,9970.19629,19226.6309,3.8807891241,9.65520126026,0,0,
2303,2303,1.1515000,47326,1151,9973.92285,19219.6582,5.92976808149,1.02115478996,0,0,
2304,2304,1.1520000,47327,1152,9971.75879,19214.9707,2.96855005412,-2.26362846773,0,0,
2305,2305,1.1525000,47327,1152,9966.71094,19210.8848,-1.65745237436,-3.43464333335,0,0,
2306,2306,1.1530000,47328,1153,9969.95605,19203.1914,0.931426349774,-6.02323759049,0,0,
2307,2307,1.1535000,47328,1153,9971.1582,19200.666,1.41594725486,-5.62157361869,0,0,
2308,2308,1.1540000,47329,1154,9972.24023,19186.4824,0.573112217288,-15.1960469696,0,0,
2309,2309,1.1545000,47329,1154,9971.75879,19186.6035,0.877065484514,-9.02022049365,0,0,
2310,2310,1.1550000,47330,1155,9974.2832,19177.4668,2.59866011746,-12.8700626675,0,0,
2311,2311,1.1555000,47330,1155,9975.72559,19176.9863,1.99794127679,-8.92150383007,0,0,
2312,2312,1.1560000,47331,1156,9969.5957,19187.3242,-4.70774414561,3.59367755379,0,0,
2313,2313,1.1565000,47331,1156,9969.47559,19204.3926,-4.47942329099,18.6218688415,0,0,
2314,2314,1.1570000,47332,1157,9968.75391,19218.8184,-4.70923019435,27.3061147247,0,0,
2315,2315,1.1575000,47332,1157,9973.08105,19217.7363,-1.18415627918,20.8049047148,0,0,
2316,2316,1.1580000,47333,1158,9977.40918,19209.5605,1.50457833727,9.66491696294,0,0,
2317,2317,1.1585000,47333,1158,9981.61621,19214.25,4.73890386109,11.0582591287,0,0,
2318,2318,1.1590000,47334,1159,9978.85059,19223.625,0.86645027698,15.8803300205,0,0,
2319,2319,1.1595000,47334,1159,9975.48535,19228.1934,-3.08360195455,15.7696537938,0,0,
2320,2320,1.1600000,47335,1160,9975.24512,19232.7598,-3.64649319195,17.6017648202,0,0,
2321,2321,1.1605000,47335,1160,9972.96094,19233.2422,-6.02878571037,15.7923927388,0,0,
2322,2322,1.1610000,47336,1161,9973.80273,19224.707,-3.84020704064,3.85626790008,0,0,
2323,2323,1.1615000,47336,1161,9973.44238,19214.8496,-3.07040700175,-8.99168406101,0,0,
2324,2324,1.1620000,47337,1162,9979.57227,19209.9219,1.98376903939,-12.7875171021,0,0,
2325,2325,1.1625000,47337,1162,9976.56738,19210.043,-2.53367953023,-11.5270345665,0,0,
2326,2326,1.1630000,47338,1163,9976.44727,19219.418,-2.52009774993,-3.4264882175,0,0,
2327,2327,1.1635000,47338,1163,9977.40918,19220.9805,-2.03523636393,-3.87578516209,0,0,
2328,2328,1.1640000,47339,1164,9978.00977,19215.6934,-1.80084077041,-7.60276456934,0,0,
2329,2329,1.1645000,47339,1164,9978.85059,19211.3652,-1.61376092774,-11.0871728297,0,0,
2330,2330,1.1650000,47340,1165,9977.40918,19200.1855,-3.67410944394,-20.032210704,0,0,
2331,2331,1.1655000,47340,1165,9973.08105,19192.8535,-8.26179266504,-22.448855614,0,0,
2332,2332,1.1660000,47341,1166,9973.56152,19194.7773,-5.81137885871,-18.1965715585,0,0,
2333,2333,1.1665000,47341,1166,9972.84082,19194.1758,-4.8898736606,-18.5547671883,0,0,
2334,2334,1.1670000,47342,1167,9971.39844,19196.3398,-4.90491477594,-16.6502039534,0,0,
2335,2335,1.1675000,47342,1167,9971.03809,19203.791,-4.43758946124,-9.11250640477,0,0,
2336,2336,1.1680000,47343,1168,9971.75879,19210.043,-2.51541719228,-2.880725652,0,0,
2337,2337,1.1685000,47343,1168,9973.80273,19208.4805,1.27656670644,-6.16666416611,0,0,
2338,2338,1.1690000,47344,1169,9975.125,19199.584,2.76366808326,-11.7381875182,0,0,
2339,2339,1.1695000,47344,1169,9980.77441,19192.252,7.55737604121,-16.0658694259,0,0,
2340,2340,1.1700000,47345,1170,9978.25,19195.498,2.62745991262,-9.73720869823,0,0,
2341,2341,1.1705000,47345,1170,9978.25,19196.9395,2.13912692907,-6.07614556353,0,0,
2342,2342,1.1710000,47346,1171,9976.08691,19201.0273,-0.758274443357,-0.21077373051,0,0,
2343,2343,1.1715000,47346,1171,9976.32715,19202.5898,-0.735756642636,1.93744772418,0,0,
2344,2344,1.1720000,47347,1172,9978.25,19203.4316,1.88497763176,4.17137973662,0,0,
2345,2345,1.1725000,47347,1172,9978.00977,19203.6719,2.85832345346,6.08049394736,0,0,
2346,2346,1.1730000,47348,1173,9978.00977,19200.1855,2.15220092624,6.0525517018,0,0,
2347,2347,1.1735000,47348,1173,9980.29395,19204.5137,3.83077520338,9.92468293716,0,0,
2348,2348,1.1740000,47349,1174,9976.80762,19212.2051,-0.343536560703,16.9487922407,0,0,
2349,2349,1.1745000,47349,1174,9972.7207,19219.5391,-2.06041966726,21.1811843981,0,0,
2350,2350,1.1750000,47350,1175,9978.00977,19222.1836,2.9926177512,20.5696426567,0,0,
2351,2351,1.1755000,47350,1175,9976.44727,19220.8613,0.886069828209,14.745339863,0,0,
2352,2352,1.1760000,47351,1176,9976.80762,19221.8223,1.97780633046,9.99991402538,0,0,
2353,2353,1.1765000,47351,1176,9978.37012,19211.9668,3.41126541708,-4.32390247696,0,0,
2354,2354,1.1770000,47352,1177,9978.73145,19213.168,3.67432350135,-7.28452898863,0,0,
2355,2355,1.1775000,47352,1177,9977.28809,19216.7734,1.22619776883,-5.50635486342,0,0,
2356,2356,1.1780000,47353,1178,9975.36523,19216.293,-1.23004847133,-6.0112114489,0,0,
2357,2357,1.1785000,47353,1178,9976.32715,19211.3652,0.183498764699,-11.9226207799,0,0,
2358,2358,1.1790000,47354,1179,9977.64941,19208.7207,2.21798002294,-15.2901400753,0,0,
2359,2359,1.1795000,47354,1179,9979.21191,19205.5957,3.90287283204,-17.1245475194,0,0,
2360,2360,1.1800000,47355,1180,9979.0918,19202.5898,3.39924309599,-16.3287364675,0,0,
2361,2361,1.1805000,47355,1180,9977.52832,19199.3457,1.87009163941,-14.4982190585,0,0,
2362,2362,1.1810000,47356,1181,9983.65918,19198.9844,7.49589356201,-11.1030711405,0,0,
2363,2363,1.1815000,47356,1181,9982.33691,19200.5469,6.01642263821,-7.90293286254,0,0,
2364,2364,1.1820000,47357,1182,9978.85059,19200.3066,1.24013363654,-5.3721360932,0,0,
2365,2365,1.1825000,47357,1182,9977.04785,19203.5527,-0.685289570318,-1.09525425257,0,0,
2366,2366,1.1830000,47358,1183,9979.33203,19205.2344,1.63084955496,-0.725670987765,0,0,
2367,2367,1.1835000,47358,1183,9979.8125,19203.0703,1.48967053521,-2.64038131314,0,0,
2368,2368,1.1840000,47359,1184,9973.68262,19205.3535,-3.82825838868,2.41098332022,0,0,
2369,2369,1.1845000,47359,1184,9969.95605,19206.6777,-6.29584987265,4.54518499815,0,0,
2370,2370,1.1850000,47360,1185,9971.99902,19206.918,-3.42935289914,5.90976626988,0,0,
2371,2371,1.1855000,47360,1185,9976.32715,19207.8789,0.739791756244,7.98525305207,0,0,
2372,2372,1.1860000,47361,1186,9980.89453,19202.3496,5.15904990342,1.49342094253,0,0,
2373,2373,1.1865000,47361,1186,9982.45703,19205.5957,6.22158500719,2.14098868495,0,0,
2374,2374,1.1870000,47362,1187,9979.33203,19201.9902,3.05551101176,-3.60027780572,0,0,
2375,2375,1.1875000,47362,1187,9978.85059,19198.3828,1.9759324267,-7.81593581322,0,0,
2376,2376,1.1880000,47363,1188,9980.41309,19202.1094,2.96001031308,-4.10430350501,0,0,
2377,2377,1.1885000,47363,1188,9982.69727,19205.3535,4.90180017284,-1.69358198525,0,0,
2378,2378,1.1890000,47364,1189,9982.09668,19214.8496,3.33952719947,8.87014111967,0,0,
2379,2379,1.1895000,47364,1189,9982.45703,19217.375,2.14924906322,10.2992992377,0,0,
2380,2380,1.1900000,47365,1190,9982.45703,19225.3086,0.509971815192,14.6487829299,0,0,
2381,2381,1.1905000,47365,1190,9977.16797,19235.7656,-4.36462235446,20.0360490895,0,0,
2382,2382,1.1910000,47366,1191,9980.41309,19236.9668,-1.59902751305,16.5656717057,0,0,
2383,2383,1.1915000,47366,1191,9981.49512,19231.0781,-1.22217843536,7.65801509257,0,0,
2384,2384,1.1920000,47367,1192,9981.25488,19216.7734,-1.31824619911,-5.48562081784,0,0,
2385,2385,1.1925000,47367,1192,9977.40918,19203.5527,-3.4636217169,-14.4765907818,0,0,
2386,2386,1.1930000,47368,1193,9981.01465,19201.3887,-0.508126424993,-10.6766843097,0,0,
2387,2387,1.1935000,47368,1193,9981.73535,19196.5801,-0.519233234976,-12.6297413298,0,0,
2388,2388,1.1940000,47369,1194,9982.09668,19195.7383,-0.550925690741,-10.1529571764,0,0,
2389,2389,1.1945000,47369,1194,9981.49512,19194.6562,0.381446340597,-8.64348198852,0,0,
2390,2390,1.1950000,47370,1195,9979.45215,19192.9746,-2.56532716719,-6.70310708341,0,0,
2391,2391,1.1955000,47370,1195,9979.45215,19195.498,-2.64162184714,-2.19150665269,0,0,
2392,2392,1.1960000,47371,1196,9980.53418,19196.2188,-1.15467994764,-1.449574327,0,0,
2393,2393,1.1965000,47371,1196,9980.6543,19202.8301,-1.26179293765,4.61635156283,0,0,
2394,2394,1.1970000,47372,1197,9978.12988,19209.9219,-3.19101077914,7.80345530614,0,0,
2395,2395,1.1975000,47372,1197,9977.52832,19214.0098,-3.78066421031,9.21412025968,0,0,
2396,2396,1.1980000,47373,1198,9980.53418,19219.2988,-1.30038590228,12.9466379235,0,0,
2397,2397,1.1985000,47373,1198,9980.6543,19222.5449,-1.2962720334,13.2779351263,0,0,
2398,2398,1.1990000,47374,1199,9978.61035,19223.7461,-2.62693336833,10.8066721571,0,0,
2399,2399,1.1995000,47374,1199,9977.28809,19220.9805,-3.22060919721,6.31995594883,0,0,
2400,2400,1.2000000,47375,1200,9978.61035,19219.2988,-1.59671479562,4.94515698313,0,0,
2401,2401,1.2005000,47375,1200,9978.12988,19215.332,-1.41625395499,2.80525224635,0,0,
2402,2402,1.2010000,47376,1201,9974.88379,19216.293,-4.20258410381,3.98125280777,0,0,
2403,2403,1.2015000,47376,1201,9973.80273,19219.5391,-3.27708782622,5.32346507012,0,0,
2404,2404,1.2020000,47377,1202,9975.60547,19218.2168,-1.15830882321,3.88076186836,0,0,
2405,2405,1.2025000,47377,1202,9976.80762,19217.1348,0.275674185608,1.68787411549,0,0,
2406,2406,1.2030000,47378,1203,9979.0918,19217.2559,2.0689935863,-0.384012119687,0,0,
2407,2407,1.2035000,47378,1203,9979.69238,19209.0801,1.99881782187,-7.44258645487,0,0,
2408,2408,1.2040000,47379,1204,9976.44727,19206.1973,0.0101754416203,-7.12192043712,0,0,
2409,2409,1.2045000,47379,1204,9977.28809,19197.541,1.13706532898,-12.1161466359,0,0,
2410,2410,1.2050000,47380,1205,9972.60059,19192.4941,-3.33177559309,-12.316162386,0,0,
2411,2411,1.2055000,47380,1205,9972.48047,19192.6133,-3.60112909196,-7.75449137707,0,0,
2412,2412,1.2060000,47381,1206,9970.07617,19199.7051,-4.91732881932,0.580913478635,0,0,
2413,2413,1.2065000,47381,1206,9971.75879,19202.9512,-2.05263072372,1.83547802152,0,0,
2414,2414,1.2070000,47382,1207,9971.39844,19195.6191,-0.656209960941,-5.10619493522,0,0,
2415,2415,1.2075000,47382,1207,9968.27344,19189.6074,-2.6322107169,-9.21833055822,0,0,
2416,2416,1.2080000,47383,1208,9971.99902,19183.8379,1.24244810726,-12.4760072146,0,0,
2417,2417,1.2085000,47383,1208,9973.92285,19184.9199,3.30096693336,-9.39709185483,0,0,
2418,2418,1.2090000,47384,1209,9968.75391,19190.5703,-0.86458381983,-1.17496600701,0,0,
2419,2419,1.2095000,47384,1209,9964.90723,19197.541,-3.74938181074,6.74469932781,0,0,
2420,2420,1.2100000,47385,1210,9965.98926,19193.9355,-2.18269625221,2.91118702231,0,0,
2421,2421,1.2105000,47385,1210,9964.06641,19195.498,-1.79697590122,3.7516025488,0,0,
2422,2422,1.2110000,47386,1211,9965.02832,19191.291,-0.68509543462,1.40670261616,0,0,
2423,2423,1.2115000,47386,1211,9969.83594,19185.5215,3.63245138389,-0.50405143554,0,0,
2424,2424,1.2120000,47387,1212,9971.03809,19186.9629,4.91661672568,6.07812050191,0,0,
2425,2425,1.2125000,47387,1212,9967.19141,19196.0996,3.07673397777,17.8801187912,0,0,
2426,2426,1.2130000,47388,1213,9958.05566,19206.1973,-5.00068201155,27.5207477198,0,0,
2427,2427,1.2135000,47388,1213,9959.85938,19214.0098,-2.10608062602,30.8944874982,0,0,
2428,2428,1.2140000,47389,1214,9965.38867,19226.5098,3.59348956199,36.5646699692,0,0,
2429,2429,1.2145000,47389,1214,9966.10938,19243.8184,5.82266893193,43.8166193998,0,0,
2430,2430,1.2150000,47390,1215,9970.91797,19251.5137,9.06957259967,41.7760689162,0,0,
2431,2431,1.2155000,47390,1215,9970.67676,19236.8477,7.6098840383,19.9038978525,0,0,
2432,2432,1.2160000,47391,1216,9971.87988,19227.832,7.79301662039,5.31489324124,0,0,
2433,2433,1.2165000,47391,1216,9968.75391,19216.5332,4.03533527973,-9.06183488905,0,0,
2434,2434,1.2170000,47392,1217,9966.46973,19200.3066,2.26591077393,-26.3365700374,0,0,
2435,2435,1.2175000,47392,1217,9966.95117,19189.127,2.19596589149,-34.2358488689,0,0,
2436,2436,1.2180000,47393,1218,9965.98926,19178.9102,0.318217715433,-38.0532976794,0,0,
2437,2437,1.2185000,47393,1218,9966.46973,19169.7754,0.680663430286,-39.8728537022,0,0,
2438,2438,1.2190000,47394,1219,9964.06641,19161.3613,-0.708547217244,-40.3205991181,0,0,
2439,2439,1.2195000,47394,1219,9960.21973,19165.4473,-3.22459216909,-28.4118828398,0,0,
2440,2440,1.2200000,47395,1220,9956.37305,19181.0742,-5.69630302834,-7.91641944933,0,0,
2441,2441,1.2205000,47395,1220,9955.1709,19190.6895,-4.90689598728,5.03602891718,0,0,
2442,2442,1.2210000,47396,1221,9955.1709,19193.2148,-3.32825768478,8.07474726521,0,0,
2443,2443,1.2215000,47396,1221,9955.1709,19192.4941,-1.27947051717,6.32949969882,0,0,
2444,2444,1.2220000,47397,1222,9951.80566,19190.4492,-3.5937654635,5.53734322631,0,0,
2445,2445,1.2225000,47397,1222,9949.40137,19188.8867,-4.34917423834,4.26940136191,0,0,
2446,2446,1.2230000,47398,1223,9944.47363,19195.1387,-7.2409125084,8.30905508623,0,0,
2447,2447,1.2235000,47398,1223,9945.43457,19199.8262,-4.46202805739,12.5370296801,0,0,
2448,2448,1.2240000,47399,1224,9944.1123,19202.8301,-2.34677401978,14.7121281599,0,0,
2449,2449,1.2245000,47399,1224,9941.70801,19208.7207,-2.54808941873,18.804636941,0,0,
2450,2450,1.2250000,47400,1225,9946.99707,19217.4941,3.77539615827,23.8852717408,0,0,
2451,2451,1.2255000,47400,1225,9944.9541,19218.9375,1.83012951267,20.8467167698,0,0,
2452,2452,1.2260000,47401,1226,9944.59277,19216.5332,2.52128511133,12.6806611761,0,0,
2453,2453,1.2265000,47401,1226,9946.15625,19207.2773,4.35076048514,-1.08466748148,0,0,
2454,2454,1.2270000,47402,1227,9944.47363,19206.918,4.02590196532,-2.9486347843,0,0,
2455,2455,1.2275000,47402,1227,9947.47852,19208.7207,7.21527723163,-2.83947851613,0,0,
2456,2456,1.2280000,47403,1228,9945.31445,19210.7637,4.25557277259,-3.0401968873,0,0,
2457,2457,1.2285000,47403,1228,9942.5498,19211.2441,1.92830855453,-5.83580992848,0,0,
2458,2458,1.2290000,47404,1229,9940.9873,19206.0762,2.11027541279,-12.0332393467,0,0,
2459,2459,1.2295000,47404,1229,9938.34277,19205.2344,0.618960170164,-13.5829940612,0,0,
2460,2460,1.2300000,47405,1230,9940.74707,19205.7148,2.51483349539,-13.2193492036,0,0,
2461,2461,1.2305000,47405,1230,9939.18457,19210.2832,2.45414133529,-10.5869099039,0,0,
2462,2462,1.2310000,47406,1231,9936.54004,19214.6113,-0.264632784707,-6.36492404849,0,0,
2463,2463,1.2315000,47406,1231,9935.69824,19216.0527,-1.41260378092,-4.1232918219,0,0,
2464,2464,1.2320000,47407,1232,9931.73145,19213.7676,-3.63182945638,-4.81176902417,0,0,
2465,2465,1.2325000,47407,1232,9930.88965,19216.1738,-0.988996223694,-2.61859941121,0,0,
2466,2466,1.2330000,47408,1233,9925.48145,19213.2871,-3.48324549353,-5.61776580934,0,0,
2467,2467,1.2335000,47408,1233,9922.95703,19215.0918,-4.53553723145,-5.49017848458,0,0,
2468,2468,1.2340000,47409,1234,9923.4375,19215.2109,-3.23748842677,-7.66758774625,0,0,
2469,2469,1.2345000,47409,1234,9919.47168,19213.5293,-3.65937112764,-11.9079745906,0,0,
2470,2470,1.2350000,47410,1235,9916.10547,19223.1445,-5.47684194681,-3.78497553778,0,0,
2471,2471,1.2355000,47410,1235,9915.98535,19218.457,-3.216913485,-6.05247581562,0,0,
2472,2472,1.2360000,47411,1236,9916.94629,19224.1074,-0.389246695828,-1.18112246249,0,0,
2473,2473,1.2365000,47411,1236,9919.11035,19224.9473,3.4091523566,-1.19486350684,0,0,
2474,2474,1.2370000,47412,1237,9916.70605,19227.4707,3.14312785994,-0.458299495514,0,0,
2475,2475,1.2375000,47412,1237,9911.53809,19221.7012,-0.428510258219,-6.18694809444,0,0,
2476,2476,1.2380000,47413,1238,9913.58105,19221.2207,2.31231833352,-5.67588806305,0,0,
2477,2477,1.2385000,47413,1238,9911.6582,19216.293,1.6569928953,-9.20846723242,0,0,
2478,2478,1.2390000,47414,1239,9916.3457,19207.0371,7.46075723967,-15.7768483067,0,0,
2479,2479,1.2395000,47414,1239,9912.62012,19196.7012,5.2736961818,-22.590221021,0,0,
2480,2480,1.2400000,47415,1240,9913.70117,19182.6367,6.89304782132,-31.6915274473,0,0,
2481,2481,1.2405000,47415,1240,9913.10059,19179.752,6.69648177632,-27.4313740901,0,0,
2482,2482,1.2410000,47416,1241,9920.3125,19180.9531,12.3874046855,-20.1644099531,0,0,
2483,2483,1.2415000,47416,1241,9916.10547,19187.8047,8.05207938252,-9.83741162331,0,0,
2484,2484,1.2420000,47417,1242,9908.53223,19199.9453,1.18498386093,4.71630672997,0,0,
2485,2485,1.2425000,47417,1242,9901.08008,19212.5664,-4.26577520569,16.0482079343,0,0,
2486,2486,1.2430000,47418,1243,9897.95508,19231.1973,-4.98616036081,27.6024354427,0,0,
2487,2487,1.2435000,47418,1243,9898.7959,19239.1309,-3.12495393474,29.9969219565,0,0,
2488,2488,1.2440000,47419,1244,9900.11816,19242.2559,0.433066489197,28.1094787029,0,0,
2489,2489,1.2445000,47419,1244,9904.80664,19240.2129,5.24560200507,21.7081410852,0,0,
2490,2490,1.2450000,47420,1245,9908.29199,19223.625,6.88115462071,3.88960784412,0,0,
2491,2491,1.2455000,47420,1245,9903.72461,19208.9609,1.85208915037,-8.24047948742,0,0,
2492,2492,1.2460000,47421,1246,9904.44629,19208.2402,2.40375055808,-7.57019669771,0,0,
2493,2493,1.2465000,47421,1246,9906.84961,19200.3066,3.55564841283,-12.5139933077,0,0,
2494,2494,1.2470000,47422,1247,9899.99805,19199.1035,-1.89195030692,-10.4683450159,0,0,
2495,2495,1.2475000,47422,1247,9897.11328,19203.4316,-4.10265144281,-4.44125921543,0,0,
2496,2496,1.2480000,47423,1248,9896.87305,19206.5566,-3.87473921588,-0.704496582152,0,0,
2497,2497,1.2485000,47423,1248,9895.91113,19211.8457,-3.68467561418,3.41536501743,0,0,
2498,2498,1.2490000,47424,1249,9895.6709,19212.8066,-2.26029592999,4.72800818237,0,0,
2499,2499,1.2495000,47424,1249,9892.18457,19220.9805,-4.15945028041,10.7811637741,0,0,
2500,2500,1.2500000,47425,1250,9890.74316,19230.3574,-5.62186059551,16.6037007923,0,0,
2501,2501,1.2505000,47425,1250,9887.0166,19238.7715,-6.61505240422,18.708564663,0,0,
2502,2502,1.2510000,47426,1251,9883.8916,19234.8047,-8.06366725443,11.9008797123,0,0,
2503,2503,1.2515000,47426,1251,9882.20801,19228.4336,-8.57954416503,5.69099433001,0,0,
2504,2504,1.2520000,47427,1252,9877.76074,19240.0938,-9.61977746821,16.1802509445,0,0,
2505,2505,1.2525000,47427,1252,9878.84277,19243.5801,-4.88888049664,16.1357210536,0,0,
2506,2506,1.2530000,47428,1253,9883.16992,19242.9785,1.58661852205,12.9906202714,0,0,
2507,2507,1.2535000,47428,1253,9881.96777,19239.6113,0.655430836606,6.18300587289,0,0,
2508,2508,1.2540000,47429,1254,9881.36621,19238.5293,-0.448625882111,1.92602439544,0,0,
2509,2509,1.2545000,47429,1254,9882.56934,19234.5645,2.44386965822,-4.4738938383,0,0,
2510,2510,1.2550000,47430,1255,9878.60254,19234.8047,-1.21365679306,-6.22004755032,0,0,
2511,2511,1.2555000,47430,1255,9876.43848,19235.6465,-2.47621016261,-2.5204541203,0,0,
2512,2512,1.2560000,47431,1256,9875.23633,19225.6699,-2.84220325215,-11.2614657665,0,0,
2513,2513,1.2565000,47431,1256,9875.23633,19222.1836,-1.92679087722,-12.0510596634,0,0,
2514,2514,1.2570000,47432,1257,9872.71191,19226.2695,-2.1414548912,-7.05149234163,0,0,
2515,2515,1.2575000,47432,1257,9881.00684,19233.7227,5.99870622903,1.54241716924,0,0,
2516,2516,1.2580000,47433,1258,9887.37695,19234.9238,9.46613593607,3.17005269129,0,0,
2517,2517,1.2585000,47433,1258,9888.69922,19232.5215,8.88206545621,1.92475675922,0,0,
2518,2518,1.2590000,47434,1259,9889.66113,19234.4434,7.6019040638,4.78149804221,0,0,
2519,2519,1.2595000,47434,1259,9893.86816,19236.127,10.3852099376,6.2022475355,0,0,
2520,2520,1.2600000,47435,1260,9901.9209,19236.0059,14.3108684641,5.49783692227,0,0,
2521,2521,1.2605000,47435,1260,9902.88281,19233.3613,11.6240654172,2.41904644574,0,0,
2522,2522,1.2610000,47436,1261,9896.63281,19229.6348,1.76889656443,-1.75699464861,0,0,
2523,2523,1.2615000,47436,1261,9894.1084,19227.2324,-1.00134179716,-5.44675598358,0,0,
2524,2524,1.2620000,47437,1262,9892.66602,19225.3086,-2.29635665724,-7.49390553966,0,0,
2525,2525,1.2625000,47437,1262,9893.98828,19230.5977,-1.19683684515,-3.905708127,0,0,
2526,2526,1.2630000,47438,1263,9892.90625,19240.6934,-2.97957691662,0.190955324963,0,0,
2527,2527,1.2635000,47438,1263,9896.87305,19243.459,-1.73925980888,1.07519106424,0,0,
2528,2528,1.2640000,47439,1264,9896.03125,19240.0938,-3.49949026972,-1.89685932412,0,0,
2529,2529,1.2645000,47439,1264,9897.59473,19239.7324,-4.17619702064,-1.11702501444,0,0,
2530,2530,1.2650000,47440,1265,9894.8291,19246.8242,-8.9527560559,7.51228253319,0,0,
2531,2531,1.2655000,47440,1265,9891.46387,19242.0176,-11.6358339413,4.96538405078,0,0,
2532,2532,1.2660000,47441,1266,9890.9834,19236.0059,-11.8773894758,-1.24940063291,0,0,
2533,2533,1.2665000,47441,1266,9887.0166,19236.0059,-15.4390512479,-0.0972720529279,0,0,
2534,2534,1.2670000,47442,1267,9879.08301,19240.5742,-18.7680486264,3.61965926107,0,0,
2535,2535,1.2675000,47442,1267,9873.67383,19243.9395,-20.5249630569,4.35088218989,0,0,
2536,2536,1.2680000,47443,1268,9873.91406,19243.5801,-17.5398972499,1.77243136321,0,0,
2537,2537,1.2685000,47443,1268,9877.28027,19241.2949,-11.6875295188,-2.85284943327,0,0,
2538,2538,1.2690000,47444,1269,9878.60254,19242.9785,-7.94736450817,-1.46540007224,0,0,
2539,2539,1.2695000,47444,1269,9878.96289,19238.6504,-5.31288277755,-7.0063752636,0,0,
2540,2540,1.2700000,47445,1270,9877.64062,19234.2031,-6.0091804911,-11.5182628454,0,0,
2541,2541,1.2705000,47445,1270,9884.97266,19225.5488,2.51734938795,-19.3394223641,0,0,
2542,2542,1.2710000,47446,1271,9875.11621,19228.9141,-5.52874112849,-12.0381531129,0,0,
2543,2543,1.2715000,47446,1271,9872.71191,19226.3906,-6.55410694935,-9.08485471135,0,0,
2544,2544,1.2720000,47447,1272,9869.82715,19224.4668,-5.93151806623,-8.089169618,0,0,
2545,2545,1.2725000,47447,1272,9866.70215,19229.1543,-5.5637940626,-1.61130521609,0,0,
2546,2546,1.2730000,47448,1273,9868.26465,19227.2324,-1.81796926362,-0.498750926154,0,0,
2547,2547,1.2735000,47448,1273,9860.21094,19229.9961,-6.77586816282,3.34320450228,0,0,
2548,2548,1.2740000,47449,1274,9860.09082,19231.6797,-4.83070713139,4.860145775,0,0,
2549,2549,1.2745000,47449,1274,9856.12402,19239.1309,-4.54100017203,10.7428669782,0,0,
2550,2550,1.2750000,47450,1275,9854.08105,19240.0938,-3.0298459473,9.39453246334,0,0,
2551,2551,1.2755000,47450,1275,9855.76367,19237.4492,1.31760140263,8.79368394462,0,0,
2552,2552,1.2760000,47451,1276,9855.88379,19234.2031,3.44180902734,7.08411319037,0,0,
2553,2553,1.2765000,47451,1276,9860.21094,19219.7793,8.62878735788,-3.80781431796,0,0,
2554,2554,1.2770000,47452,1277,9861.77441,19216.7734,11.8507604832,-5.03511319472,0,0,
2555,2555,1.2775000,47452,1277,9855.04199,19216.0527,5.59066783294,-3.1951555019,0,0,
2556,2556,1.2780000,47453,1278,9854.08105,19220.2598,4.5021948303,3.24941829002,0,0,
2557,2557,1.2785000,47453,1278,9847.58984,19223.9863,0.845461638631,8.97301976889,0,0,
2558,2558,1.2790000,47454,1279,9844.70508,19225.9082,0.829023476732,11.6233604004,0,0,
2559,2559,1.2795000,47454,1279,9842.30078,19217.6152,1.99680987077,4.92247939548,0,0,
2560,2560,1.2800000,47455,1280,9841.21973,19208.2402,2.66441194333,-1.29141649983,0,0,
2561,2561,1.2805000,47455,1280,9843.2627,19198.502,7.26674266761,-6.36070926335,0,0,
2562,2562,1.2810000,47456,1281,9842.4209,19195.9785,8.69388139084,-4.8571336909,0,0,
2563,2563,1.2815000,47456,1281,9839.77637,19192.4941,9.66968121845,-5.59297891501,0,0,
2564,2564,1.2820000,47457,1282,9839.17578,19193.0938,12.0822249898,-2.43241677905,0,0,
2565,2565,1.2825000,47457,1282,9838.21387,19194.416,13.242476831,-0.934996964934,0,0,
2566,2566,1.2830000,47458,1283,9837.0127,19194.0566,13.8160536601,-3.94511905063,0,0,
2567,2567,1.2835000,47458,1283,9834.36816,19196.7012,11.1453323401,0.219381473262,0,0,
2568,2568,1.2840000,47459,1284,9831.60254,19191.1699,10.6134261153,-0.896630780396,0,0,
2569,2569,1.2845000,47459,1284,9829.67969,19188.166,9.52354630374,0.433326787868,0,0,
2570,2570,1.2850000,47460,1285,9827.63574,19189.4883,8.67693824187,5.42820478628,0,0,
2571,2571,1.2855000,47460,1285,9824.27051,19184.0801,8.27023464635,6.17388879408,0,0,
2572,2572,1.2860000,47461,1286,9822.94824,19185.041,8.67078804737,9.612132805,0,0,
2573,2573,1.2865000,47461,1286,9820.30371,19183.2363,7.90420082537,10.0734229991,0,0,
2574,2574,1.2870000,47462,1287,9819.10254,19181.7949,11.0542013433,9.14799610337,0,0,
2575,2575,1.2875000,47462,1287,9816.33691,19182.877,10.6540142791,9.54842171428,0,0,
2576,2576,1.2880000,47463,1288,9817.89941,19177.8281,12.3383921611,5.34897075963,0,0,
2577,2577,1.2885000,47463,1288,9819.70312,19179.3906,13.6647627737,6.78796982522,0,0,
2578,2578,1.2890000,47464,1289,9817.29883,19184.5605,11.8028192657,11.5699356705,0,0,
2579,2579,1.2895000,47464,1289,9815.37598,19187.9258,10.8236771894,13.2612789233,0,0,
2580,2580,1.2900000,47465,1290,9815.73633,19190.209,10.6782545034,13.4010822066,0,0,
2581,2581,1.2905000,47465,1290,9812.97168,19195.1387,7.96134728029,15.180225251,0,0,
2582,2582,1.2910000,47466,1291,9809.9668,19199.584,7.39659254258,16.6295003213,0,0,
2583,2583,1.2915000,47466,1291,9809.84668,19195.6191,7.28248917552,12.7616881038,0,0,
2584,2584,1.2920000,47467,1292,9809.125,19198.502,7.88902245799,12.9922244737,0,0,
2585,2585,1.2925000,47467,1292,9803.23535,19200.666,3.9179249121,11.1733232813,0,0,
2586,2586,1.2930000,47468,1293,9797.34473,19207.3984,-0.62389510956,14.9426730182,0,0,
2587,2587,1.2935000,47468,1293,9796.62402,19208.3594,1.10730575456,11.295570642,0,0,
2588,2588,1.2940000,47469,1294,9797.82617,19205.3535,2.05953718693,4.29640609504,0,0,
2589,2589,1.2945000,47469,1294,9796.74414,19206.1973,2.73944958086,0.496839500768,0,0,
2590,2590,1.2950000,47470,1295,9796.50391,19208.3594,3.06921707336,-1.27907952078,0,0,
2591,2591,1.2955000,47470,1295,9799.02832,19207.8789,4.68527828955,-1.70567947774,0,0,
2592,2592,1.2960000,47471,1296,9796.26367,19212.5664,1.54224484894,1.45451966883,0,0,
2593,2593,1.2965000,47471,1296,9797.70605,19211.6055,1.51767324346,0.602387435924,0,0,
2594,2594,1.2970000,47472,1297,9795.54199,19205.1152,-0.125174921942,-8.18745112128,0,0,
2595,2595,1.2975000,47472,1297,9794.21973,19195.7383,-1.24017791411,-17.468011147,0,0,
2596,2596,1.2980000,47473,1298,9793.25879,19196.9395,-3.55090505094,-16.5021761515,0,0,
2597,2597,1.2985000,47473,1298,9789.1709,19200.666,-5.86184462167,-12.8510077298,0,0,
2598,2598,1.2990000,47474,1299,9792.41699,19203.791,-2.58838513294,-10.4448592848,0,0,
2599,2599,1.2995000,47474,1299,9789.77246,19210.5234,-4.42254829479,-4.34940115467,0,0,
2600,2600,1.3000000,47475,1300,9781.83887,19209.9219,-11.6634645531,-5.31767312367,0,0,
2601,2601,1.3005000,47475,1300,9784.00293,19217.0137,-8.70005456867,0.0640940367196,0,0,
2602,2602,1.3010000,47476,1301,9782.68066,19225.6699,-8.65809844484,3.79806057176,0,0,
2603,2603,1.3015000,47476,1301,9779.43457,19229.6348,-8.8775649743,1.68905325612,0,0,
2604,2604,1.3020000,47477,1302,9781.95996,19224.4668,-4.7489334031,-8.21202023009,0,0,
2605,2605,1.3025000,47477,1302,9781.11816,19213.7676,-4.50166122748,-22.3360119548,0,0,
2606,2606,1.3030000,47478,1303,9783.04102,19208.2402,-2.18157275999,-31.4933952955,0,0,
2607,2607,1.3035000,47478,1303,9783.28223,19207.5176,-3.04573706389,-31.9670253942,0,0,
2608,2608,1.3040000,47479,1304,9784.24316,19207.6387,-1.84646379576,-28.3283574524,0,0,
2609,2609,1.3045000,47479,1304,9778.47363,19204.3926,-7.60573501781,-28.129941688,0,0,
2610,2610,1.3050000,47480,1305,9780.03613,19186.9629,-6.201571995,-39.4483206237,0,0,
2611,2611,1.3055000,47480,1305,9780.5166,19172.2988,-4.68874354527,-42.8309648436,0,0,
2612,2612,1.3060000,47481,1306,9781.95996,19178.4297,-3.82298160949,-30.8588031188,0,0,
2613,2613,1.3065000,47481,1306,9784.84473,19199.1035,-1.83535146529,-8.45168792448,0,0,
2614,2614,1.3070000,47482,1307,9788.4502,19212.8066,2.05786787885,2.87634620501,0,0,
2615,2615,1.3075000,47482,1307,9792.65723,19220.5,4.44844250512,6.03634411237,0,0,
2616,2616,1.3080000,47483,1308,9799.50879,19220.5,6.4013248014,3.68127122304,0,0,
2617,2617,1.3085000,47483,1308,9801.43262,19215.4512,3.56084107898,-3.82146728016,0,0,
2618,2618,1.3090000,47484,1309,9801.31152,19207.2773,0.542765654205,-12.243979682,0,0,
2619,2619,1.3095000,47484,1309,9795.90332,19199.7051,-6.22606430042,-18.3570285819,0,0,
2620,2620,1.3100000,47485,1310,9801.79297,19188.6465,-3.87450672575,-25.5401164298,0,0,
2621,2621,1.3105000,47485,1310,9802.27344,19180.9531,-5.90861026394,-28.5586949564,0,0,
2622,2622,1.3110000,47486,1311,9802.75488,19188.7676,-6.06995488209,-17.0828101327,0,0,
2623,2623,1.3115000,47486,1311,9800.11035,19200.7871,-10.7718062158,-0.849373852736,0,0,
2624,2624,1.3120000,47487,1312,9794.34082,19212.2051,-15.9169447398,9.35341064366,0,0,
2625,2625,1.3125000,47487,1312,9789.65234,19222.7832,-18.3164316937,16.169604468,0,0,
2626,2626,1.3130000,47488,1313,9784.72363,19232.8809,-21.2461441715,21.8933305681,0,0,
2627,2627,1.3135000,47488,1313,9778.9541,19240.9355,-23.8765460959,24.2778204188,0,0,
2628,2628,1.3140000,47489,1314,9780.5166,19249.9492,-21.5867706383,26.9062862957,0,0,
2629,2629,1.3145000,47489,1314,9784.4834,19237.3281,-15.6373487254,9.7577578018,0,0,
2630,2630,1.3150000,47490,1315,9786.0459,19209.9219,-13.3205369747,-15.8730404599,0,0,
2631,2631,1.3155000,47490,1315,9788.08984,19195.0176,-11.9153911712,-22.8463810742,0,0,
2632,2632,1.3160000,47491,1316,9785.56543,19190.5703,-13.4081161811,-20.5766350403,0,0,
2633,2633,1.3165000,47491,1316,9787.48926,19194.6562,-12.0825822501,-9.14683984618,0,0,
2634,2634,1.3170000,47492,1317,9785.68555,19201.5078,-12.0653077676,0.944713733592,0,0,
2635,2635,1.3175000,47492,1317,9786.0459,19206.6777,-10.4824189783,8.60147224584,0,0,
2636,2636,1.3180000,47493,1318,9786.52734,19208.7207,-10.2139105608,10.4488624519,0,0,
2637,2637,1.3185000,47493,1318,9784.72363,19202.8301,-9.38661911496,5.79248860152,0,0,
2638,2638,1.3190000,47494,1319,9782.44043,19201.748,-10.6681911826,6.13234604088,0,0,
2639,2639,1.3195000,47494,1319,9779.55566,19208.5996,-10.6264201733,13.3828947766,0,0,
2640,2640,1.3200000,47495,1320,9779.55566,19214.6113,-8.24014638577,19.9017827821,0,0,
2641,2641,1.3205000,47495,1320,9777.27148,19214.25,-9.09164295539,18.6902510416,0,0,
2642,2642,1.3210000,47496,1321,9779.31543,19213.2871,-5.05297052954,15.5812252222,0,0,
2643,2643,1.3215000,47496,1321,9781.83887,19212.2051,0.152576679315,12.904604388,0,0,
2644,2644,1.3220000,47497,1322,9783.88281,19219.2988,2.85284555442,18.3889982793,0,0,
2645,2645,1.3225000,47497,1322,9783.7627,19225.1875,3.69067684358,21.3131366879,0,0,
2646,2646,1.3230000,47498,1323,9778.47363,19231.7988,-0.196943154302,21.4378351474,0,0,
2647,2647,1.3235000,47498,1323,9777.03125,19232.2793,-0.771197063786,17.6207289749,0,0,
2648,2648,1.3240000,47499,1324,9777.15137,19235.4043,1.23836758728,18.6286967774,0,0,
2649,2649,1.3245000,47499,1324,9781.47852,19228.0723,6.58667483145,10.9809958543,0,0,
2650,2650,1.3250000,47500,1325,9786.0459,19220.5,10.0517526862,6.46477803816,0,0,
2651,2651,1.3255000,47500,1325,9787.48926,19220.1387,11.5217048327,10.3588738858,0,0,
2652,2652,1.3260000,47501,1326,9786.52734,19219.2988,9.72703252823,7.25639705171,0,0,
2653,2653,1.3265000,47501,1326,9785.68555,19221.2207,8.31359512698,4.87110520685,0,0,
2654,2654,1.3270000,47502,1327,9779.7959,19224.8281,4.4911886973,4.4243401743,0,0,
2655,2655,1.3275000,47502,1327,9776.06934,19224.3457,2.37541184595,0.890521203218,0,0,
2656,2656,1.3280000,47503,1328,9772.94434,19216.5332,-0.554353261882,-5.41275259386,0,0,
2657,2657,1.3285000,47503,1328,9777.87207,19204.3926,4.54020046044,-14.120725845,0,0,
2658,2658,1.3290000,47504,1329,9778.35352,19197.1816,6.49157707039,-16.225722725,0,0,
2659,2659,1.3295000,47504,1329,9783.40137,19199.9453,12.8310717588,-9.62281124401,0,0,
2660,2660,1.3300000,47505,1330,9779.07422,19205.5957,7.53273366635,-1.0097189903,0,0,
2661,2661,1.3305000,47505,1330,9780.6377,19209.2012,9.44639558507,3.4063376923,0,0,
2662,2662,1.3310000,47506,1331,9782.31934,19206.3164,12.3751623916,-0.214722313583,0,0,
2663,2663,1.3315000,47506,1331,9780.99805,19196.7012,11.2434997865,-6.63485722229,0,0,
2664,2664,1.3320000,47507,1332,9779.19434,19197.7832,11.3621252176,-4.84521426134,0,0,
2665,2665,1.3325000,47507,1332,9778.59375,19203.0703,12.8191838754,-0.185530447056,0,0,
2666,2666,1.3330000,47508,1333,9781.11816,19206.7969,15.689912361,3.1774212758,0,0,
2667,2667,1.3335000,47508,1333,9781.47852,19204.9941,16.358170204,1.64434001786,0,0,
2668,2668,1.3340000,47509,1334,9780.75684,19207.1582,13.1748758163,3.82716698887,0,0,
2669,2669,1.3345000,47509,1334,9779.31543,19205.8359,10.9881558039,5.31189500377,0,0,
2670,2670,1.3350000,47510,1335,9775.46875,19205.4746,7.00148938084,9.8892790439,0,0,
2671,2671,1.3355000,47510,1335,9775.1084,19207.7598,5.68643800031,16.0640737105,0,0,
2672,2672,1.3360000,47511,1336,9777.75293,19210.4043,8.50593833509,18.4538547108,0,0,
2673,2673,1.3365000,47511,1336,9779.19434,19213.6484,7.99202323164,20.8516466388,0,0,
2674,2674,1.3370000,47512,1337,9781.11816,19215.9316,9.90245112825,19.8074347133,0,0,
2675,2675,1.3375000,47512,1337,9779.67578,19217.8555,7.93679476567,19.1279502037,0,0,
2676,2676,1.3380000,47513,1338,9778.1123,19216.6543,5.10789727862,14.7225136213,0,0,
2677,2677,1.3385000,47513,1338,9779.43457,19220.6191,7.26971826982,16.5034968928,0,0,
2678,2678,1.3390000,47514,1339,9777.87207,19222.3027,5.25331228196,14.9942765433,0,0,
2679,2679,1.3395000,47514,1339,9779.19434,19222.7832,7.01956971562,11.5024909045,0,0,
2680,2680,1.3400000,47515,1340,9782.68066,19218.9375,9.39512186953,6.13650954621,0,0,
2681,2681,1.3405000,47515,1340,9778.47363,19216.0527,4.37074096926,2.50505173303,0,0,
2682,2682,1.3410000,47516,1341,9785.44531,19218.8184,9.29450885565,2.88614459144,0,0,
2683,2683,1.3415000,47516,1341,9783.04102,19223.8652,6.50326427663,4.88663026413,0,0,
2684,2684,1.3420000,47517,1342,9779.67578,19225.3086,2.4409772959,2.8971037525,0,0,
2685,2685,1.3425000,47517,1342,9773.66504,19220.3809,-2.40540327298,-4.10161348304,0,0,
2686,2686,1.3430000,47518,1343,9775.1084,19221.8223,0.207721428013,-6.80646951408,0,0,
2687,2687,1.3435000,47518,1343,9773.30469,19216.293,-1.52633616125,-12.5510869977,0,0,
2688,2688,1.3440000,47519,1344,9771.74219,19220.6191,-2.15507377439,-7.81801486015,0,0,
2689,2689,1.3445000,47519,1344,9766.81348,19221.8223,-5.88534127661,-4.60058821664,0,0,
2690,2690,1.3450000,47520,1345,9765.85254,19224.4668,-6.47668070269,0.690590783297,0,0,
2691,2691,1.3455000,47520,1345,9765.37207,19225.1875,-4.94919472538,3.44177547911,0,0,
2692,2692,1.3460000,47521,1346,9768.85742,19217.8555,-0.812103158948,-5.53690216971,0,0,
2693,2693,1.3465000,47521,1346,9774.38672,19207.998,4.11987876818,-16.9176655076,0,0,
2694,2694,1.3470000,47522,1347,9773.54492,19208.3594,4.78335208185,-17.8055724352,0,0,
2695,2695,1.3475000,47522,1347,9770.17969,19209.0801,2.11770454509,-17.2123904743,0,0,
2696,2696,1.3480000,47523,1348,9764.29004,19214.4902,-3.69858808334,-9.61844045945,0,0,
2697,2697,1.3485000,47523,1348,9760.92383,19216.0527,-7.0110702874,-6.09057866118,0,0,
2698,2698,1.3490000,47524,1349,9760.32324,19224.8281,-5.53274185824,2.17985103868,0,0,
2699,2699,1.3495000,47524,1349,9762.12598,19226.2695,-2.24312748589,0.960505507279,0,0,
2700,2700,1.3500000,47525,1350,9759.00098,19230.959,-4.20115835997,2.47859249797,0,0,
2701,2701,1.3505000,47525,1350,9756.23633,19224.1074,-5.26923958747,-6.26907432871,0,0,
2702,2702,1.3510000,47526,1351,9755.87598,19221.7012,-3.07346383421,-10.2771615007,0,0,
2703,2703,1.3515000,47526,1351,9757.43848,19218.6973,0.00134764514483,-11.402408142,0,0,
2704,2704,1.3520000,47527,1352,9754.19238,19217.4941,-0.151901867583,-14.0698022381,0,0,
2705,2705,1.3525000,47527,1352,9758.15918,19213.6484,5.6947768781,-19.2052031989,0,0,
2706,2706,1.3530000,47528,1353,9760.56348,19211.7246,7.92219732675,-20.675533856,0,0,
2707,2707,1.3535000,47528,1353,9768.25684,19209.4414,14.3551982743,-20.7976420528,0,0,
2708,2708,1.3540000,47529,1354,9769.5791,19215.6934,12.1218210381,-14.2300281486,0,0,
2709,2709,1.3545000,47529,1354,9765.97266,19221.582,7.03064124721,-6.46210393545,0,0,
2710,2710,1.3550000,47530,1355,9759.36133,19233.1211,0.540193293262,6.31297566248,0,0,
2711,2711,1.3555000,47530,1355,9758.03906,19235.7656,-1.79805022441,9.14957692018,0,0,
2712,2712,1.3560000,47531,1356,9756.11621,19245.2617,-3.54498028271,14.5244963423,0,0,
2713,2713,1.3565000,47531,1356,9755.27441,19240.9355,-5.28469256736,7.4559339715,0,0,
2714,2714,1.3570000,47532,1357,9756.35645,19232.1602,-3.60060570265,-3.36168422399,0,0,
2715,2715,1.3575000,47532,1357,9757.79883,19229.0352,-1.95554545511,-6.8241345809,0,0,
2716,2716,1.3580000,47533,1358,9761.88574,19220.3809,0.614147298959,-14.2554199792,0,0,
2717,2717,1.3585000,47533,1358,9766.33301,19226.1504,4.08880049426,-8.06441542478,0,0,
2718,2718,1.3590000,47534,1359,9764.53027,19228.4336,1.05638801728,-5.98810855475,0,0,
2719,2719,1.3595000,47534,1359,9761.64551,19234.4434,-1.98157770779,-1.79261362666,0,0,
2720,2720,1.3600000,47535,1360,9759.60156,19235.4043,-4.73519370194,-0.791155525377,0,0,
2721,2721,1.3605000,47535,1360,9757.19824,19233.3613,-6.46324305344,-2.48320842566,0,0,
2722,2722,1.3610000,47536,1361,9757.91895,19229.9961,-7.14432781583,-6.68983252117,0,0,
2723,2723,1.3615000,47536,1361,9755.27441,19225.3086,-8.05323990348,-11.3699644322,0,0,
2724,2724,1.3620000,47537,1362,9754.67285,19218.6973,-7.65590860797,-16.228924106,0,0,
2725,2725,1.3625000,47537,1362,9753.83203,19218.457,-6.56641901209,-13.6571990983,0,0,
2726,2726,1.3630000,47538,1363,9748.42285,19218.0957,-10.1970580736,-14.1166772047,0,0,
2727,2727,1.3635000,47538,1363,9742.5332,19225.0684,-13.8171171931,-5.44935709838,0,0,
2728,2728,1.3640000,47539,1364,9745.77832,19222.7832,-8.77504459997,-6.33288920806,0,0,
2729,2729,1.3645000,47539,1364,9746.62012,19224.8281,-6.43630754262,-1.30609779907,0,0,
2730,2730,1.3650000,47540,1365,9746.86035,19225.1875,-6.35095177891,2.53255290085,0,0,
2731,2731,1.3655000,47540,1365,9742.77344,19231.5586,-8.60116467001,10.9916167161,0,0,
2732,2732,1.3660000,47541,1366,9739.64746,19228.0723,-10.4786434641,7.48588033879,0,0,
2733,2733,1.3665000,47541,1366,9740.72949,19220.8613,-8.8117397743,0.362302177928,0,0,
2734,2734,1.3670000,47542,1367,9735.56152,19222.7832,-9.78134587827,0.260860367067,0,0,
2735,2735,1.3675000,47542,1367,9735.80176,19226.2695,-6.45036970427,2.09391289451,0,0,
2736,2736,1.3680000,47543,1368,9730.39258,19228.7949,-9.04008723585,4.54760160065,0,0,
2737,2737,1.3685000,47543,1368,9724.50293,19225.5488,-12.3142380982,2.85443080146,0,0,
2738,2738,1.3690000,47544,1369,9717.41113,19212.0859,-14.6772232754,-8.18588999914,0,0,
2739,2739,1.3695000,47544,1369,9716.68945,19204.3926,-11.4515941248,-12.35548962,0,0,
2740,2740,1.3700000,47545,1370,9719.09375,19205.9551,-5.77265715958,-8.36977326797,0,0,
2741,2741,1.3705000,47545,1370,9721.7373,19223.2637,-0.778809108838,9.35013785396,0,0,
2742,2742,1.3710000,47546,1371,9718.85254,19232.8809,-0.715648135976,16.1932868995,0,0,
2743,2743,1.3715000,47546,1371,9719.93457,19240.9355,2.06537145756,22.3199399342,0,0,
2744,2744,1.3720000,47547,1372,9719.93457,19233.4824,5.25010503092,11.4643800177,0,0,
2745,2745,1.3725000,47547,1372,9724.1416,19229.1543,10.1085660122,4.71500236256,0,0,
2746,2746,1.3730000,47548,1373,9726.42578,19230.4766,11.717692488,4.1538886993,0,0,
2747,2747,1.3735000,47548,1373,9729.07031,19229.6348,12.7003367456,2.80603392824,0,0,
2748,2748,1.3740000,47549,1374,9735.08008,19225.3086,15.4872622659,-2.93148752929,0,0,
2749,2749,1.3745000,47549,1374,9737.96582,19213.4082,16.5107363958,-11.4295597458,0,0,
2750,2750,1.3750000,47550,1375,9737.00391,19215.9316,14.5842878227,-5.74472596033,0,0,
2751,2751,1.3755000,47550,1375,9728.70996,19218.2168,4.92198735103,0.248165059828,0,0,
2752,2752,1.3760000,47551,1376,9723.78125,19220.1387,0.365018655564,2.02896562005,0,0,
2753,2753,1.3765000,47551,1376,9719.09375,19212.6875,-4.26482514507,-1.63893179955,0,0,
2754,2754,1.3770000,47552,1377,9723.78125,19210.6426,0.511440602872,-0.380667399434,0,0,
2755,2755,1.3775000,47552,1377,9726.18555,19207.0371,2.42880632021,-0.849064776796,0,0,
2756,2756,1.3780000,47553,1378,9723.4209,19207.2773,-1.36696071296,2.73792222168,0,0,
2757,2757,1.3785000,47553,1378,9721.7373,19210.5234,-2.62874689618,6.01636306677,0,0,
2758,2758,1.3790000,47554,1379,9718.37207,19215.4512,-4.41752771296,10.4346378975,0,0,
2759,2759,1.3795000,47554,1379,9712.3623,19214.0098,-7.4082672406,7.72784122568,0,0,
2760,2760,1.3800000,47555,1380,9712.00098,19211.8457,-5.98205667712,7.12414374858,0,0,
2761,2761,1.3805000,47555,1380,9715.84863,19208.9609,-0.630236562892,6.48879119608,0,0,
2762,2762,1.3810000,47556,1381,9720.89648,19204.873,2.68803481166,3.78566326627,0,0,
2763,2763,1.3815000,47556,1381,9717.53027,19210.043,0.919141889053,9.05034977128,0,0,
2764,2764,1.3820000,47557,1382,9709.47754,19218.8184,-5.0897683639,16.6049538136,0,0,
2765,2765,1.3825000,47557,1382,9709.35645,19219.6582,-2.66249608529,15.783239563,0,0,
2766,2766,1.3830000,47558,1383,9708.27539,19219.7793,-1.35715495586,12.1207121316,0,0,
2767,2767,1.3835000,47558,1383,9711.16016,19224.8281,2.65646057962,13.9530076131,0,0,
2768,2768,1.3840000,47559,1384,9709.95801,19235.6465,1.35310743346,20.8723497276,0,0,
2769,2769,1.3845000,47559,1384,9711.52051,19237.9297,2.98981495274,20.0392043594,0,0,
2770,2770,1.3850000,47560,1385,9706.11133,19242.2559,-2.36597718752,21.6695049155,0,0,
2771,2771,1.3855000,47560,1385,9696.375,19245.0215,-8.5200051557,20.6121703495,0,0,
2772,2772,1.3860000,47561,1386,9692.76855,19240.334,-9.26866094397,13.083364353,0,0,
2773,2773,1.3865000,47561,1386,9699.62012,19239.8535,-2.2315005522,9.65249162782,0,0,
2774,2774,1.3870000,47562,1387,9702.38574,19243.8184,3.28755111601,7.18723404204,0,0,
2775,2775,1.3875000,47562,1387,9704.06836,19243.8184,5.58443227918,1.89510745878,0,0,
2776,2776,1.3880000,47563,1388,9705.27051,19236.2461,7.20950875751,-7.15752104624,0,0,
2777,2777,1.3885000,47563,1388,9702.50488,19228.0723,4.47298292726,-13.2163588142,0,0,
2778,2778,1.3890000,47564,1389,9702.98633,19214.1289,5.76466265281,-22.1299544323,0,0,
2779,2779,1.3895000,47564,1389,9704.30859,19208.2402,6.03447561562,-23.6203389037,0,0,
2780,2780,1.3900000,47565,1390,9702.62598,19211.7246,3.40057626959,-18.8242001749,0,0,
2781,2781,1.3905000,47565,1390,9704.66895,19212.6875,4.19383978075,-18.0884696767,0,0,
2782,2782,1.3910000,47566,1391,9705.27051,19216.5332,4.79515176303,-14.5359444337,0,0,
2783,2783,1.3915000,47566,1391,9705.39062,19221.8223,3.66516937624,-8.3557577901,0,0,
2784,2784,1.3920000,47567,1392,9705.14941,19225.1875,3.94970487877,-4.60102161621,0,0,
2785,2785,1.3925000,47567,1392,9706.95312,19221.582,4.16692915965,-7.97103798571,0,0,
2786,2786,1.3930000,47568,1393,9708.87598,19217.4941,4.13493907306,-11.609313422,0,0,
2787,2787,1.3935000,47568,1393,9708.39551,19217.2559,1.64459074099,-10.1870306525,0,0,
2788,2788,1.3940000,47569,1394,9706.11133,19222.7832,-2.84494099146,-5.12027091355,0,0,
2789,2789,1.3945000,47569,1394,9709.35645,19218.2168,-0.214489208835,-6.18668071993,0,0,
2790,2790,1.3950000,47570,1395,9713.32324,19219.0566,3.61099545056,-4.48737733327,0,0,
2791,2791,1.3955000,47570,1395,9708.99707,19226.752,-0.424604061468,3.63213389048,0,0,
2792,2792,1.3960000,47571,1396,9702.02441,19233.1211,-5.90417828915,6.79899910097,0,0,
2793,2793,1.3965000,47571,1396,9699.74121,19230.959,-7.40113521848,5.74761011031,0,0,
2794,2794,1.3970000,47572,1397,9698.41895,19227.4707,-8.55902324521,2.55971803636,0,0,
2795,2795,1.3975000,47572,1397,9701.66406,19219.6582,-5.33223427015,-3.59838060335,0,0,
2796,2796,1.3980000,47573,1398,9700.3418,19220.0195,-6.35350241938,-1.98572200314,0,0,
2797,2797,1.3985000,47573,1398,9700.70215,19228.5527,-5.15146398409,3.73356927548,0,0,
2798,2798,1.3990000,47574,1399,9700.3418,19241.1738,-3.9531397752,11.5676405909,0,0,
2799,2799,1.3995000,47574,1399,9699.25977,19250.6699,-2.6550975188,15.276948504,0,0,
2800,2800,1.4000000,47575,1400,9698.65918,19256.6816,-2.77972870523,16.9259966265,0,0,
2801,2801,1.4005000,47575,1400,9696.85645,19250.4316,-3.92084209469,8.41435121257,0,0,
2802,2802,1.4010000,47576,1401,9695.53418,19243.2188,-6.11329716341,-0.252530022731,0,0,
2803,2803,1.4015000,47576,1401,9694.8125,19230.2363,-3.94885920879,-13.5395066965,0,0,
2804,2804,1.4020000,47577,1402,9693.61035,19212.2051,-2.33876985673,-28.2991426063,0,0,
2805,2805,1.4025000,47577,1402,9697.2168,19213.168,2.21874843395,-23.2448454796,0,0,
2806,2806,1.4030000,47578,1403,9692.16797,19219.7793,-0.881714245993,-15.790552956,0,0,
2807,2807,1.4035000,47578,1403,9694.21191,19218.2168,1.53462810328,-16.0681023916,0,0,
2808,2808,1.4040000,47579,1404,9700.70215,19227.3516,6.7927537007,-7.43738594479,0,0,
2809,2809,1.4045000,47579,1404,9694.21191,19232.4004,0.395808558001,-1.48195201731,0,0,
2810,2810,1.4050000,47580,1405,9696.49512,19223.3848,2.69920017138,-7.41279545083,0,0,
2811,2811,1.4055000,47580,1405,9697.81738,19211.2441,5.72716430902,-14.7135254255,0,0,
2812,2812,1.4060000,47581,1406,9698.05762,19211.8457,5.45388867609,-8.84402453539,0,0,
2813,2813,1.4065000,47581,1406,9696.49512,19221.3418,1.17738593826,2.3195744055,0,0,
2814,2814,1.4070000,47582,1407,9694.8125,19226.8711,0.757807157056,5.07242366076,0,0,
2815,2815,1.4075000,47582,1407,9694.57227,19222.1836,0.787876419223,-0.147751863957,0,0,
2816,2816,1.4080000,47583,1408,9690.96582,19220.1387,-1.60734971472,0.329792105699,0,0,
2817,2817,1.4085000,47583,1408,9690.60547,19216.7734,-0.77562222551,1.21763101519,0,0,
2818,2818,1.4090000,47584,1409,9687.48047,19209.6816,-2.05622703686,0.348812330254,0,0,
2819,2819,1.4095000,47584,1409,9687.36035,19211.4844,-1.78398519504,4.68907684202,0,0,
2820,2820,1.4100000,47585,1410,9696.01465,19213.168,5.82919772295,5.01619247735,0,0,
2821,2821,1.4105000,47585,1410,9701.54395,19212.6875,8.72719415222,2.84716097878,0,0,
2822,2822,1.4110000,47586,1411,9699.86133,19210.043,6.30752725324,-0.799618083135,0,0,
2823,2823,1.4115000,47586,1411,9696.13477,19208.2402,1.80433634101,-1.64043564408,0,0,
2824,2824,1.4120000,47587,1412,9696.01465,19202.4707,2.3888405331,-4.87774322366,0,0,
2825,2825,1.4125000,47587,1412,9699.50098,19200.9082,4.16263675551,-3.37964727852,0,0,
2826,2826,1.4130000,47588,1413,9693.61035,19203.6719,-2.19634767878,1.0572896038,0,0,
2827,2827,1.4135000,47588,1413,9695.29395,19205.4746,-1.072414206,4.15232351117,0,0,
2828,2828,1.4140000,47589,1414,9690.24512,19202.709,-6.01029441379,1.33464418503,0,0,
2829,2829,1.4145000,47589,1414,9691.6875,19200.666,-4.09798930486,3.71855508982,0,0,
2830,2830,1.4150000,47590,1415,9688.80273,19202.8301,-5.1088326564,6.66082123682,0,0,
2831,2831,1.4155000,47590,1415,9688.32129,19214.25,-2.71608575156,16.2469991678,0,0,
2832,2832,1.4160000,47591,1416,9686.63867,19221.1016,-1.26472329314,18.5045054681,0,0,
2833,2833,1.4165000,47591,1416,9688.08105,19227.1113,0.978471775555,23.472366581,0,0,
2834,2834,1.4170000,47592,1417,9683.87402,19225.4277,-2.55842566927,20.1567511566,0,0,
2835,2835,1.4175000,47592,1417,9679.30664,19226.1504,-6.06300125222,19.7208732818,0,0,
2836,2836,1.4180000,47593,1418,9683.63379,19225.6699,-0.792135402241,16.5922118162,0,0,
2837,2837,1.4185000,47593,1418,9682.19141,19221.3418,-0.945964923294,7.53415519495,0,0,
2838,2838,1.4190000,47594,1419,9685.67676,19218.0957,3.68202371813,0.29566165804,0,0,
2839,2839,1.4195000,47594,1419,9680.14746,19223.3848,0.929565842591,1.97992836162,0,0,
2840,2840,1.4200000,47595,1420,9679.90723,19229.9961,1.67103096838,6.35692550406,0,0,
2841,2841,1.4205000,47595,1420,9679.66699,19236.2461,2.39848778964,11.7864006572,0,0,
2842,2842,1.4210000,47596,1421,9679.06543,19236.8477,1.2428908386,10.8249357994,0,0,
2843,2843,1.4215000,47596,1421,9670.29102,19240.4551,-3.69084228711,11.8448344064,0,0,
2844,2844,1.4220000,47597,1422,9668.84863,19240.334,-1.39809216114,9.96369720662,0,0,
2845,2845,1.4225000,47597,1422,9671.0127,19232.2793,2.12595714755,-0.534221931467,0,0,
2846,2846,1.4230000,47598,1423,9672.09473,19223.7461,5.72725505501,-11.7082792237,0,0,
2847,2847,1.4235000,47598,1423,9674.25781,19211.7246,7.60923989837,-22.0644241396,0,0,
2848,2848,1.4240000,47599,1424,9672.81543,19210.8848,5.19251819128,-22.8954042426,0,0,
2849,2849,1.4245000,47599,1424,9672.93555,19218.2168,6.55361885817,-14.2429118959,0,0,
2850,2850,1.4250000,47600,1425,9675.21973,19220.2598,8.15932526268,-8.5871925838,0,0,
2851,2851,1.4255000,47600,1425,9678.22461,19228.1934,11.6433056298,1.14867342516,0,0,
2852,2852,1.4260000,47601,1426,9678.58496,19235.4043,10.9017626445,7.07808552639,0,0,
2853,2853,1.4265000,47601,1426,9676.54199,19234.084,6.46408564836,2.49596637298,0,0,
2854,2854,1.4270000,47602,1427,9676.42188,19228.4336,6.82461194529,-6.60881742948,0,0,
2855,2855,1.4275000,47602,1427,9676.30176,19227.832,6.10129135579,-7.49217187105,0,0,
2856,2856,1.4280000,47603,1428,9679.30664,19228.1934,8.68006921951,-5.83927869574,0,0,
2857,2857,1.4285000,47603,1428,9674.8584,19230.7168,4.08357250663,-1.33497703501,0,0,
2858,2858,1.4290000,47604,1429,9679.30664,19228.9141,8.07219350337,0.432556685784,0,0,
2859,2859,1.4295000,47604,1429,9677.50293,19222.4238,4.58699865376,-5.2393218196,0,0,
2860,2860,1.4300000,47605,1430,9677.02246,19225.1875,1.45931260374,-4.74294903692,0,0,
2861,2861,1.4305000,47605,1430,9678.46484,19225.7891,0.421858020614,-6.25096692715,0,0,
2862,2862,1.4310000,47606,1431,9673.41699,19237.3281,-3.56097226254,1.59649275023,0,0,
2863,2863,1.4315000,47606,1431,9669.4502,19245.3809,-6.18390956655,5.87902337034,0,0,
2864,2864,1.4320000,47607,1432,9668.24805,19248.5078,-5.53973689266,6.18714339218,0,0,
2865,2865,1.4325000,47607,1432,9665.60352,19238.1699,-7.96121044311,-4.93282156075,0,0,
2866,2866,1.4330000,47608,1433,9662.2373,19221.9434,-8.95631311965,-19.6748835025,0,0,
2867,2867,1.4335000,47608,1433,9666.92578,19207.998,-4.306813412,-29.0426399771,0,0,
2868,2868,1.4340000,47609,1434,9665.3623,19207.6387,-4.80624773935,-25.6484537271,0,0,
2869,2869,1.4345000,47609,1434,9660.91504,19211.2441,-8.1235015348,-16.1619935634,0,0,
2870,2870,1.4350000,47610,1435,9662.83887,19217.9766,-4.15091894354,-8.27241565302,0,0,
2871,2871,1.4355000,47610,1435,9662.71875,19217.8555,-2.03485474887,-8.93059398624,0,0,
2872,2872,1.4360000,47611,1436,9666.92578,19212.5664,3.68505253042,-13.8518859584,0,0,
2873,2873,1.4365000,47611,1436,9667.52637,19212.5664,3.5602049204,-9.75579630458,0,0,
2874,2874,1.4370000,47612,1437,9670.89258,19216.1738,5.85549770993,-2.53383991855,0,0,
2875,2875,1.4375000,47612,1437,9676.30176,19216.4121,8.85744044687,0.872671005751,0,0,
2876,2876,1.4380000,47613,1438,9675.21973,19224.3457,4.92549396016,8.99044198097,0,0,
2877,2877,1.4385000,47613,1438,9669.4502,19227.1113,-1.09867249456,9.4673566194,0,0,
2878,2878,1.4390000,47614,1439,9670.77246,19222.9043,-0.542750225883,3.46653744641,0,0,
2879,2879,1.4395000,47614,1439,9668.00684,19220.1387,-1.34256539774,-1.02192991852,0,0,
2880,2880,1.4400000,47615,1440,9665.84375,19219.1777,-3.5019938873,-1.62750751515,0,0,
2881,2881,1.4405000,47615,1440,9664.16113,19217.7363,-4.78326496566,-0.377910003294,0,0,
2882,2882,1.4410000,47616,1441,9662.47754,19217.6152,-6.90297404769,2.39689187717,0,0,
2883,2883,1.4415000,47616,1441,9664.6416,19211.7246,-2.082583464,-0.665183727771,0,0,
2884,2884,1.4420000,47617,1442,9664.6416,19212.3262,-1.02535058076,3.40308275401,0,0,
2885,2885,1.4425000,47617,1442,9667.64648,19212.6875,0.534877450439,6.07001214535,0,0,
2886,2886,1.4430000,47618,1443,9660.43457,19220.3809,-5.07403201714,12.4529974374,0,0,
2887,2887,1.4435000,47618,1443,9658.15137,19226.5098,-7.22874418449,17.8317850396,0,0,
2888,2888,1.4440000,47619,1444,9659.35254,19226.5098,-6.2290022404,13.6548027322,0,0,
2889,2889,1.4445000,47619,1444,9659.35254,19227.5918,-4.92008929209,11.5146536818,0,0,
2890,2890,1.4450000,47620,1445,9660.31445,19226.9902,-4.32110199814,11.3314053158,0,0,
2891,2891,1.4455000,47620,1445,9660.07422,19225.0684,-3.50813951084,9.2540143651,0,0,
2892,2892,1.4460000,47621,1446,9658.99219,19222.7832,-4.03145139309,6.30571848862,0,0,
2893,2893,1.4465000,47621,1446,9660.19434,19220.7402,-3.53005334283,3.66260666131,0,0,
2894,2894,1.4470000,47622,1447,9658.51172,19215.2109,-3.73789902929,-2.01289040085,0,0,
2895,2895,1.4475000,47622,1447,9658.3916,19208.9609,-3.29609525736,-6.04667725961,0,0,
2896,2896,1.4480000,47623,1448,9654.18457,19192.252,-6.0831205212,-16.4768292907,0,0,
2897,2897,1.4485000,47623,1448,9650.69824,19173.1406,-6.78197698448,-25.6154921569,0,0,
2898,2898,1.4490000,47624,1449,9649.49609,19155.2305,-6.32868048648,-29.2887323471,0,0,
2899,2899,1.4495000,47624,1449,9657.79004,19152.2246,1.68920452661,-21.261265242,0,0,
2900,2900,1.4500000,47625,1450,9658.27051,19162.8027,0.603360096318,-6.67288294691,0,0,
2901,2901,1.4505000,47625,1450,9650.57812,19179.752,-7.16090557256,10.7536194765,0,0,
2902,2902,1.4510000,47626,1451,9644.08691,19201.8691,-9.49692887717,27.2775669668,0,0,
2903,2903,1.4515000,47626,1451,9643.00488,19216.7734,-7.2143668336,35.6600377953,0,0,
2904,2904,1.4520000,47627,1452,9644.08691,19219.2988,-3.53883007889,33.4772022279,0,0,
2905,2905,1.4525000,47627,1452,9637.59668,19223.2637,-7.78459259557,34.2626097489,0,0,
2906,2906,1.4530000,47628,1453,9633.75,19231.3184,-7.6021229876,37.6446204934,0,0,
2907,2907,1.4535000,47628,1453,9631.10547,19234.3223,-8.51927704722,35.3837170476,0,0,
2908,2908,1.4540000,47629,1454,9631.82617,19227.5918,-4.66082679354,22.2411478279,0,0,
2909,2909,1.4545000,47629,1454,9634.35059,19227.5918,0.0384462236626,18.2964792103,0,0,
2910,2910,1.4550000,47630,1455,9636.75488,19225.4277,3.86392762978,10.27573712,0,0,
2911,2911,1.4555000,47630,1455,9643.9668,19229.877,11.5703538991,8.55786997009,0,0,
2912,2912,1.4560000,47631,1456,9649.49609,19236.4863,15.9608502414,9.02814111602,0,0,
2913,2913,1.4565000,47631,1456,9648.77441,19241.1738,13.4293474051,9.32188596802,0,0,
2914,2914,1.4570000,47632,1457,9646.01074,19239.1309,9.29718687563,3.69776107409,0,0,
2915,2915,1.4575000,47632,1457,9645.88965,19233.2422,7.36677966493,-3.57023330129,0,0,
2916,2916,1.4580000,47633,1458,9645.64941,19227.5918,5.97632705829,-11.3942439013,0,0,
2917,2917,1.4585000,47633,1458,9643.60645,19230.2363,4.94805338324,-11.6141719974,0,0,
2918,2918,1.4590000,47634,1459,9642.52441,19228.5527,3.44606728257,-14.6754997177,0,0,
2919,2919,1.4595000,47634,1459,9641.56348,19223.0254,4.63810093209,-21.0834883074,0,0,
2920,2920,1.4600000,47635,1460,9642.04395,19222.0625,5.02566138672,-21.5101729513,0,0,
2921,2921,1.4605000,47635,1460,9637.83691,19226.1504,1.44863461893,-15.8920650799,0,0,
2922,2922,1.4610000,47636,1461,9636.15332,19231.1973,-0.302953523798,-10.2184213901,0,0,
2923,2923,1.4615000,47636,1461,9637.35547,19229.6348,2.6620062222,-10.5726637999,0,0,
2924,2924,1.4620000,47637,1462,9640,19220.9805,5.6765021155,-16.664090774,0,0,
2925,2925,1.4625000,47637,1462,9637.11523,19217.1348,1.71346264829,-17.8342962994,0,0,
2926,2926,1.4630000,47638,1463,9629.18262,19216.8945,-2.74554091297,-18.169547678,0,0,
2927,2927,1.4635000,47638,1463,9624.0127,19222.0625,-6.17331569842,-12.2538080687,0,0,
2928,2928,1.4640000,47639,1464,9627.73926,19232.7598,-2.33288433567,-4.50760974223,0,0,
2929,2929,1.4645000,47639,1464,9627.37891,19234.2031,-1.16615281306,-5.47547983301,0,0,
2930,2930,1.4650000,47640,1465,9628.10059,19232.7598,-0.495776387822,-5.84060236435,0,0,
2931,2931,1.4655000,47640,1465,9627.86035,19235.4043,0.490440618922,-3.13703372283,0,0,
2932,2932,1.4660000,47641,1466,9625.57617,19239.7324,-0.640623239855,-0.23337820609,0,0,
2933,2933,1.4665000,47641,1466,9626.53809,19247.9062,-0.0486017168783,4.77937284023,0,0,
2934,2934,1.4670000,47642,1467,9626.53809,19251.3926,1.47560099622,4.85809082265,0,0,
2935,2935,1.4675000,47642,1467,9631.70605,19243.9395,6.03387306032,-3.14979601523,0,0,
2936,2936,1.4680000,47643,1468,9632.54785,19239.4922,6.85231138744,-4.64003941168,0,0,
2937,2937,1.4685000,47643,1468,9635.07129,19238.1699,9.27817336775,-2.3204834641,0,0,
2938,2938,1.4690000,47644,1469,9632.18652,19242.6172,5.52814662537,5.5820431639,0,0,
2939,2939,1.4695000,47644,1469,9625.45605,19251.2715,-2.38207920202,11.2260058904,0,0,
2940,2940,1.4700000,47645,1470,9627.37891,19245.502,-1.42460932564,-1.17617134245,0,0,
2941,2941,1.4705000,47645,1470,9633.26855,19232.6406,3.64792653448,-17.8313651872,0,0,
2942,2942,1.4710000,47646,1471,9632.06738,19226.8711,3.9235899769,-27.3925489228,0,0,
2943,2943,1.4715000,47646,1471,9627.49902,19222.6641,0.0939482871406,-31.1048242036,0,0,
2944,2944,1.4720000,47647,1472,9618.96484,19223.0254,-6.64543696341,-26.4418027616,0,0,
2945,2945,1.4725000,47647,1472,9616.08008,19216.7734,-7.13899081544,-26.1078158366,0,0,
2946,2946,1.4730000,47648,1473,9614.39746,19217.9766,-5.88799591211,-19.8074908039,0,0,
2947,2947,1.4735000,47648,1473,9612.83496,19214.0098,-6.67973284298,-17.6630582977,0,0,
2948,2948,1.4740000,47649,1474,9618.4834,19207.6387,-0.646131334354,-17.9171405966,0,0,
2949,2949,1.4745000,47649,1474,9619.68652,19201.0273,0.292171255225,-17.4772499936,0,0,
2950,2950,1.4750000,47650,1475,9618.24316,19209.2012,-1.04809628035,-6.36236524286,0,0,
2951,2951,1.4755000,47650,1475,9619.20508,19226.6309,-0.380521931599,9.11622492989,0,0,
2952,2952,1.4760000,47651,1476,9626.65723,19238.6504,5.41530322077,17.2593191619,0,0,
2953,2953,1.4765000,47651,1476,9629.90332,19239.6113,6.97177755189,16.550876179,0,0,
2954,2954,1.4770000,47652,1477,9634.11035,19239.4922,8.97341187243,16.0613835713,0,0,
2955,2955,1.4775000,47652,1477,9630.74512,19236.7285,3.35373705765,14.5616934498,0,0,
2956,2956,1.4780000,47653,1478,9623.53223,19232.6406,-4.06397143279,10.5401294469,0,0,
2957,2957,1.4785000,47653,1478,9615.47949,19240.4551,-9.06744266255,15.0046699615,0,0,
2958,2958,1.4790000,47654,1479,9603.5791,19244.6621,-17.2820184299,16.728519601,0,0,
2959,2959,1.4795000,47654,1479,9602.37695,19242.377,-13.0732710109,12.5812834168,0,0,
2960,2960,1.4800000,47655,1480,9614.39746,19243.2188,-0.31727733896,11.5431459388,0,0,
2961,2961,1.4805000,47655,1480,9619.08496,19232.8809,4.80409822505,2.06779445837,0,0,
2962,2962,1.4810000,47656,1481,9622.20996,19222.3027,6.44833420648,-5.63105715844,0,0,
2963,2963,1.4815000,47656,1481,9619.3252,19216.4121,3.93977119636,-6.41412452543,0,0,
2964,2964,1.4820000,47657,1482,9618.72461,19221.4629,3.05241798508,3.09318575215,0,0,
2965,2965,1.4825000,47657,1482,9612.71387,19229.1543,-2.62778853387,11.886816663,0,0,
2966,2966,1.4830000,47658,1483,9613.31543,19245.0215,1.25565692034,22.8198285371,0,0,
2967,2967,1.4835000,47658,1483,9615.23828,19254.1582,3.2584093606,26.1860824024,0,0,
2968,2968,1.4840000,47659,1484,9615.83984,19257.5215,1.69916278865,21.5851555547,0,0,
2969,2969,1.4845000,47659,1484,9620.52734,19244.6621,5.39410620216,6.15602369775,0,0,
2970,2970,1.4850000,47660,1485,9624.13379,19217.6152,6.23942774417,-15.118053578,0,0,
2971,2971,1.4855000,47660,1485,9621.96973,19205.8359,3.2160841721,-20.4844099456,0,0,
2972,2972,1.4860000,47661,1486,9612.35352,19205.4746,-5.21325235375,-15.8457980983,0,0,
2973,2973,1.4865000,47661,1486,9608.14648,19209.0801,-9.00701560297,-9.37328340544,0,0,
2974,2974,1.4870000,47662,1487,9611.15137,19214.0098,-4.49733870343,-1.98545429321,0,0,
2975,2975,1.4875000,47662,1487,9612.71387,19211.125,-3.45747539964,0.399871110392,0,0,
2976,2976,1.4880000,47663,1488,9616.08008,19213.2871,0.197315889346,8.07306988074,0,0,
2977,2977,1.4885000,47663,1488,9618.96484,19220.0195,2.89455761292,18.1874349269,0,0,
2978,2978,1.4890000,47664,1489,9615.23828,19233.1211,-0.356767895424,31.3959110411,0,0,
2979,2979,1.4895000,47664,1489,9610.30957,19241.2949,-4.64041229569,33.7108809682,0,0,
2980,2980,1.4900000,47665,1490,9604.78027,19247.1855,-9.65024316406,31.4932954705,0,0,
2981,2981,1.4905000,47665,1490,9603.81934,19248.3867,-9.57435970524,25.7476051394,0,0,
2982,2982,1.4910000,47666,1491,9602.25684,19247.0645,-7.01866313088,15.6440021255,0,0,
2983,2983,1.4915000,47666,1491,9604.66113,19248.0254,-2.01979456069,10.4689993478,0,0,
2984,2984,1.4920000,47667,1492,9604.17969,19250.0703,0.0585379223742,8.7830782713,0,0,
2985,2985,1.4925000,47667,1492,9602.13672,19249.8301,-0.211588468797,7.44857595204,0,0,
2986,2986,1.4930000,47668,1493,9598.53027,19249.9492,-1.40466021688,4.69859871892,0,0,
2987,2987,1.4935000,47668,1493,9592.52051,19257.7637,-5.84238333226,9.87358783034,0,0,
2988,2988,1.4940000,47669,1494,9595.76562,19256.6816,-2.39125002701,6.46408806422,0,0,
2989,2989,1.4945000,47669,1494,9597.08789,19251.6328,-0.600657779068,0.486850534129,0,0,
2990,2990,1.4950000,47670,1495,9601.53516,19246.4629,3.89893401852,-8.41099611127,0,0,
2991,2991,1.4955000,47670,1495,9603.33887,19241.2949,4.80211649274,-18.1087683512,0,0,
2992,2992,1.4960000,47671,1496,9600.4541,19237.3281,0.665169374855,-23.8338513095,0,0,
2993,2993,1.4965000,47671,1496,9597.80957,19234.8047,-1.40922087135,-23.6874844109,0,0,
2994,2994,1.4970000,47672,1497,9597.32812,19240.2129,-1.28969607121,-15.7736443649,0,0,
2995,2995,1.4975000,47672,1497,9594.32324,19249.4688,-2.6131772491,-4.73371652533,0,0,
2996,2996,1.4980000,47673,1498,9592.15918,19251.9941,-1.99598055599,-2.36227440015,0,0,
2997,2997,1.4985000,47673,1498,9590.59668,19248.0254,0.506408915572,-9.16074956598,0,0,
2998,2998,1.4990000,47674,1499,9586.75098,19248.8691,0.382999193436,-9.1186534215,0,0,
2999,2999,1.4995000,47674,1499,9584.82715,19251.5137,1.61580149841,-6.55073016066,0,0,
3000,3000,1.5000000,47675,1500,9585.06738,19248.3867,0.987373048389,-9.66909828436,0,0,
3001,3001,1.5005000,47675,1500,9591.43848,19237.9297,7.28483123497,-15.7324195317,0,0,
3002,3002,1.5010000,47676,1501,9600.81445,19234.3223,14.055071215,-14.7578814245,0,0,
3003,3003,1.5015000,47676,1501,9601.89551,19226.2695,14.4850546089,-16.9572852244,0,0,
3004,3004,1.5020000,47677,1502,9596.96777,19224.9473,8.86453584366,-13.9367917298,0,0,
3005,3005,1.5025000,47677,1502,9591.31836,19228.7949,4.07338597305,-8.33240426686,0,0,
3006,3006,1.5030000,47678,1503,9587.35156,19235.6465,2.87977651133,-4.64141651803,0,0,
3007,3007,1.5035000,47678,1503,9581.34082,19237.4492,-1.68965375928,-4.22758126467,0,0,
3008,3008,1.5040000,47679,1504,9580.98145,19241.1738,-2.14810858943,-3.02601957057,0,0,
3009,3009,1.5045000,47679,1504,9583.26465,19240.0938,0.371899789271,-1.7875374769,0,0,
3010,3010,1.5050000,47680,1505,9587.71191,19241.416,3.44728899495,5.6483834152,0,0,
3011,3011,1.5055000,47681,1506,9593.12109,19235.7656,8.47388714126,2.67644102418,0,0,
3012,3012,1.5060000,47681,1506,9598.8916,19233.4824,13.9500023457,0.493918021452,0,0,
3013,3013,1.5065000,47681,1506,9595.04395,19233.7227,8.26995885604,-0.574097841593,0,0,
3014,3014,1.5070000,47682,1507,9588.19238,19232.7598,1.17138197291,-1.94718485347,0,0,
3015,3015,1.5075000,47682,1507,9588.19238,19233.1211,-0.0267209960461,1.40676100533,0,0,
3016,3016,1.5080000,47683,1508,9591.43848,19237.5684,2.33838926459,7.80287680647,0,0,
3017,3017,1.5085000,47683,1508,9593.24121,19233.3613,3.2036065809,5.32222377708,0,0,
3018,3018,1.5090000,47684,1509,9588.91406,19237.6895,-0.0730620711723,9.22522570979,0,0,
3019,3019,1.5095000,47685,1510,9588.79395,19240.334,0.28243909287,8.63701530302,0,0,
3020,3020,1.5100000,47685,1510,9589.27441,19239.6113,0.16595976051,4.39137952813,0,0,
3021,3021,1.5105000,47685,1510,9588.19238,19241.2949,-1.81494808457,3.96364948207,0,0,
3022,3022,1.5110000,47686,1511,9586.62988,19247.1855,-1.5109738759,5.03908566594,0,0,
3023,3023,1.5115000,47687,1512,9585.06738,19256.6816,-2.27722862052,9.50327771803,0,0,
3024,3024,1.5120000,47687,1512,9585.78906,19260.4082,-0.340912001524,9.55822258914,0,0,
3025,3025,1.5125000,47687,1512,9584.22656,19255.2383,-0.986502066917,4.28318740372,0,0,
3026,3026,1.5130000,47688,1513,9587.95215,19252.2324,3.16258426306,0.240645727519,0,0,
3027,3027,1.5135000,47688,1513,9589.99609,19248.1465,4.12264789879,-4.06900478457,0,0,
3028,3028,1.5140000,47689,1514,9593.00098,19253.3145,3.50409249591,1.37691792652,0,0,
3029,3029,1.5145000,47689,1514,9590.35645,19260.7676,-1.01775541827,8.37440213479,0,0,
3030,3030,1.5150000,47690,1515,9588.91406,19259.9277,-3.88976172309,4.07684649472,0,0,
3031,3031,1.5155000,47691,1516,9589.51465,19247.5449,-4.57273791319,-10.8509586659,0,0,
3032,3032,1.5160000,47691,1516,9592.76074,19244.9004,-3.0408613859,-14.3362219811,0,0,
3033,3033,1.5165000,47691,1516,9596.36621,19239.0117,-0.772294559387,-17.1633108012,0,0,
3034,3034,1.5170000,47692,1517,9596.72754,19236.7285,-2.02090448124,-16.6820772499,0,0,
3035,3035,1.5175000,47692,1517,9596.72754,19237.5684,-2.53160515529,-12.9922370656,0,0,
3036,3036,1.5180000,47693,1518,9593.3623,19242.7383,-5.1248263608,-6.01069787499,0,0,
3037,3037,1.5185000,47694,1519,9585.30762,19248.1465,-9.94334670213,-1.71444170682,0,0,
3038,3038,1.5190000,47694,1519,9580.37988,19255.2383,-11.0816058267,3.59053382096,0,0,
3039,3039,1.5195000,47694,1519,9576.65332,19247.0645,-11.4057305421,-3.99710454696,0,0,
3040,3040,1.5200000,47695,1520,9579.41797,19239.9727,-9.31992821417,-8.63001383232,0,0,
3041,3041,1.5205000,47696,1521,9583.38477,19231.7988,-6.08886336786,-10.0312158274,0,0,
3042,3042,1.5210000,47696,1521,9580.98145,19233.3613,-9.51873661753,-4.12606623027,0,0,
3043,3043,1.5215000,47696,1521,9577.97559,19242.2559,-9.70108249471,7.66888216491,0,0,
3044,3044,1.5220000,47697,1522,9577.25488,19248.3867,-7.5081113063,12.9520755406,0,0,
3045,3045,1.5225000,47698,1523,9578.9375,19247.4258,-3.15366415928,9.40022319082,0,0,
3046,3046,1.5230000,47698,1523,9577.25488,19245.2617,-1.46696278666,2.20029012607,0,0,
3047,3047,1.5235000,47698,1523,9577.01465,19248.0254,-0.0894450353344,2.30348782852,0,0,
3048,3048,1.5240000,47699,1524,9573.88867,19247.0645,-3.31208785455,-1.57963432356,0,0,
3049,3049,1.5245000,47699,1524,9577.01465,19241.2949,-0.650375643194,-4.49971509581,0,0,
3050,3050,1.5250000,47700,1525,9578.0957,19242.8574,-1.02577633607,2.31920291648,0,0,
3051,3051,1.5255000,47700,1525,9583.74512,19241.5352,3.71253962077,4.02729367743,0,0,
3052,3052,1.5260000,47701,1526,9582.30273,19245.2617,2.76004260468,6.88898422644,0,0,
3053,3053,1.5265000,47702,1527,9581.94238,19243.459,2.8063330823,3.11999043256,0,0,
3054,3054,1.5270000,47702,1527,9581.58203,19242.8574,3.38102185498,1.53891714254,0,0,
3055,3055,1.5275000,47702,1527,9581.34082,19240.8145,2.01722226636,1.51688112631,0,0,
3056,3056,1.5280000,47703,1528,9578.69727,19237.5684,-0.960819339325,0.169076088719,0,0,
3057,3057,1.5285000,47703,1528,9583.625,19237.6895,3.20301553469,2.82228054365,0,0,
3058,3058,1.5290000,47704,1529,9578.9375,19235.5254,0.639729421609,0.968077046334,0,0,
3059,3059,1.5295000,47704,1529,9577.13379,19239.6113,-0.0481674275881,3.0427785175,0,0,
3060,3060,1.5300000,47705,1530,9581.82227,19241.0547,3.90514255884,2.38792180186,0,0,
3061,3061,1.5305000,47705,1530,9580.13965,19241.6562,1.70907666073,1.66486479056,0,0,
3062,3062,1.5310000,47706,1531,9580.01855,19241.2949,3.10828489972,-1.89450546036,0,0,
3063,3063,1.5315000,47706,1531,9577.375,19244.1797,1.38405971876,-2.02473314481,0,0,
3064,3064,1.5320000,47707,1532,9578.0957,19244.3008,2.906975729,-2.27408640084,0,0,
3065,3065,1.5325000,47707,1532,9581.46191,19242.8574,6.35519510951,-0.535335809495,0,0,
3066,3066,1.5330000,47708,1533,9586.0293,19236.7285,9.47104165639,-4.33867166747,0,0,
3067,3067,1.5335000,47708,1533,9584.58691,19229.5156,6.51874587552,-8.06443959472,0,0,
3068,3068,1.5340000,47709,1534,9583.86621,19225.1875,2.83956483692,-8.90067333651,0,0,
3069,3069,1.5345000,47710,1535,9584.4668,19223.9863,2.35244127573,-6.48870032487,0,0,
3070,3070,1.5350000,47710,1535,9584.94727,19230.959,1.4988416771,1.22054324754,0,0,
3071,3071,1.5355000,47710,1535,9583.38477,19236.6074,-1.22040495602,6.70120748962,0,0,
3072,3072,1.5360000,47711,1536,9583.38477,19239.6113,-2.615023695,7.72593620067,0,0,
3073,3073,1.5365000,47711,1536,9581.82227,19243.459,-4.39330416247,11.5313968559,0,0,
3074,3074,1.5370000,47712,1537,9577.25488,19243.2188,-7.92755643784,10.141641811,0,0,
3075,3075,1.5375000,47713,1538,9576.41309,19241.0547,-6.87410285306,7.14862073987,0,0,
3076,3076,1.5380000,47713,1538,9572.32617,19236.8477,-7.47482004208,2.46460243378,0,0,
3077,3077,1.5385000,47713,1538,9568.35938,19235.4043,-6.09017334191,-0.456831641178,0,0,
3078,3078,1.5390000,47714,1539,9562.70996,19240.6934,-6.60711817736,2.71868938166,0,0,
3079,3079,1.5395000,47714,1539,9566.31641,19239.9727,-0.010011086977,3.29727237755,0,0,
3080,3080,1.5400000,47715,1540,9568.47949,19239.1309,0.680490553415,3.81892226392,0,0,
3081,3081,1.5405000,47716,1541,9571.00391,19235.6465,1.71604134041,4.58458810298,0,0,
3082,3082,1.5410000,47716,1541,9572.80762,19238.0488,2.24589210436,7.39112437182,0,0,
3083,3083,1.5415000,47717,1542,9573.52832,19239.8535,4.20047147875,8.58780910072,0,0,
3084,3084,1.5420000,47717,1542,9572.56641,19237.5684,4.24766952944,5.01925993031,0,0,
3085,3085,1.5425000,47717,1542,9579.05762,19236.4863,10.24315731,2.66367423554,0,0,
3086,3086,1.5430000,47718,1543,9578.57715,19236.7285,10.4761199586,-0.61897000362,0,0,
3087,3087,1.5435000,47718,1543,9577.01465,19237.6895,8.41472092063,-1.97563266089,0,0,
3088,3088,1.5440000,47719,1544,9573.16699,19238.6504,3.61410747525,-3.20969583693,0,0,
3089,3089,1.5445000,47720,1545,9573.28809,19240.5742,1.95097550203,0.578758843713,0,0,
3090,3090,1.5450000,47720,1545,9567.99902,19253.3145,-4.16874860259,13.5601579096,0,0,
3091,3091,1.5455000,47720,1545,9571.36426,19261.3691,-1.73738872492,19.2021465974,0,0,
3092,3092,1.5460000,47721,1546,9570.40332,19258.2441,-1.26233976327,11.4008935659,0,0,
3093,3093,1.5465000,47721,1546,9571.8457,19258.123,0.890158810676,6.90615381653,0,0,
3094,3094,1.5470000,47722,1547,9570.64355,19257.2832,0.937056800035,2.65366440689,0,0,
3095,3095,1.5475000,47722,1547,9571.12402,19259.084,0.808090541552,3.32062980044,0,0,
3096,3096,1.5480000,47723,1548,9566.79688,19253.916,-2.72155309037,-2.06274014678,0,0,
3097,3097,1.5485000,47723,1548,9566.91699,19245.2617,-2.82177976965,-9.06863145942,0,0,
3098,3098,1.5490000,47724,1549,9569.20117,19238.6504,1.98721590576,-14.3265021694,0,0,
3099,3099,1.5495000,47725,1550,9566.31641,19229.1543,0.427891974616,-22.9143649302,0,0,
3100,3100,1.5500000,47725,1550,9566.55664,19228.6738,0.0349046373867,-21.8837083077,0,0,
3101,3101,1.5505000,47726,1551,9573.28809,19226.1504,5.85808065661,-21.7845397599,0,0,
3102,3102,1.5510000,47726,1551,9576.77344,19214.7305,9.08329880232,-30.0502263361,0,0,
3103,3103,1.5515000,47727,1552,9578.21582,19220.8613,9.63659921226,-22.4431995508,0,0,
3104,3104,1.5520000,47727,1552,9574.9707,19230.2363,5.70237895464,-11.1748169313,0,0,
3105,3105,1.5525000,47728,1553,9572.32617,19232.5215,2.55095161005,-4.81165190073,0,0,
3106,3106,1.5530000,47728,1553,9568.95996,19235.2852,-1.24603339198,0.437016894532,0,0,
3107,3107,1.5535000,47728,1553,9569.80176,19239.6113,-0.265391647139,6.19455607631,0,0,
3108,3108,1.5540000,47729,1554,9565.47461,19250.1895,-5.17197148684,14.9934952781,0,0,
3109,3109,1.5545000,47729,1554,9565.11426,19259.084,-4.88411919284,20.1633444099,0,0,
3110,3110,1.5550000,47730,1555,9569.68164,19263.7734,-0.8263599981,18.3569993322,0,0,
3111,3111,1.5555000,47730,1555,9568.84082,19256.3203,-1.85718217011,7.17515504757,0,0,
3112,3112,1.5560000,47731,1556,9567.27832,19234.6836,-3.8834921025,-13.9268779904,0,0,
3113,3113,1.5565000,47731,1556,9561.14746,19218.3359,-8.42264119565,-24.5929093386,0,0,
3114,3114,1.5570000,47732,1557,9566.91699,19197.3008,-1.6448808942,-36.5135717232,0,0,
3115,3115,1.5575000,47732,1557,9567.75879,19192.8535,-0.167351963294,-31.7222837369,0,0,
3116,3116,1.5580000,47733,1558,9570.64355,19199.1035,3.99990416784,-18.5553481237,0,0,
3117,3117,1.5585000,47734,1559,9568.11914,19208.7207,4.14699614815,-6.25562451246,0,0,
3118,3118,1.5590000,47734,1559,9568.23926,19215.9316,6.21827195703,0.943071816125,0,0,
3119,3119,1.5595000,47734,1559,9567.03711,19230.8379,4.64406401458,16.3773088416,0,0,
3120,3120,1.5600000,47735,1560,9566.43652,19240.6934,1.18145743215,24.724207853,0,0,
3121,3121,1.5605000,47735,1560,9564.15234,19246.3438,-2.96086569553,30.1273216604,0,0,
3122,3122,1.5610000,47736,1561,9563.67188,19246.9453,-4.48961025512,26.9556593476,0,0,
3123,3123,1.5615000,47737,1562,9559.8252,19242.9785,-6.28496655078,19.9978800795,0,0,
3124,3124,1.5620000,47737,1562,9557.78223,19241.416,-5.99962405542,15.8061374793,0,0,
3125,3125,1.5625000,47738,1563,9555.61816,19242.6172,-6.98636410618,13.8921996918,0,0,
3126,3126,1.5630000,47738,1563,9552.97363,19243.8184,-5.92443221336,9.95874204264,0,0,
3127,3127,1.5635000,47739,1564,9557.18066,19240.9355,-0.193974789816,3.7407431247,0,0,
3128,3128,1.5640000,47739,1564,9559.22363,19230.2363,2.14448589535,-7.7743637445,0,0,
3129,3129,1.5645000,47740,1565,9566.0752,19215.0918,6.45713352595,-17.4640879048,0,0,
3130,3130,1.5650000,47740,1565,9565.47461,19196.9395,4.35962693926,-28.0678521753,0,0,
3131,3131,1.5655000,47741,1566,9562.58984,19199.1035,-0.465537630317,-19.3802944363,0,0,
3132,3132,1.5660000,47741,1566,9558.02246,19217.9766,-3.43831104255,1.10094721507,0,0,
3133,3133,1.5665000,47742,1567,9561.74902,19227.3516,0.349134825208,9.24392874074,0,0,
3134,3134,1.5670000,47742,1567,9560.90723,19226.5098,0.487798432308,7.72634083371,0,0,
3135,3135,1.5675000,47743,1568,9566.91699,19224.8281,4.6070904426,7.00887919853,0,0,
3136,3136,1.5680000,47743,1568,9570.52344,19220.3809,7.01228695764,5.18554278644,0,0,
3137,3137,1.5685000,47744,1569,9571.60449,19220.3809,5.27290237521,8.00105262999,0,0,
3138,3138,1.5690000,47744,1569,9570.52344,19224.8281,4.06717806819,12.3337299304,0,0,
3139,3139,1.5695000,47745,1570,9573.64844,19227.4707,6.20961980878,12.8469403375,0,0,
3140,3140,1.5700000,47745,1570,9568.84082,19219.2988,-0.484669754707,3.04931903882,0,0,
3141,3141,1.5705000,47746,1571,9567.75879,19225.5488,-3.27635906014,7.47968781787,0,0,
3142,3142,1.5710000,47746,1571,9562.22949,19225.0684,-7.55291900373,5.64944219512,0,0,
3143,3143,1.5715000,47747,1572,9562.9502,19224.9473,-5.68458589609,1.04402589444,0,0,
3144,3144,1.5720000,47747,1572,9559.34473,19216.7734,-7.13585357728,-8.09457894749,0,0,
3145,3145,1.5725000,47748,1573,9562.46973,19212.6875,-3.13731305658,-8.66080768264,0,0,
3146,3146,1.5730000,47748,1573,9561.26758,19216.5332,-3.73668260056,-2.9653917769,0,0,
3147,3147,1.5735000,47749,1574,9564.99414,19208.2402,-0.380332851521,-8.17793860924,0,0,
3148,3148,1.5740000,47749,1574,9566.19629,19199.2246,-0.0891487533154,-14.4294240515,0,0,
3149,3149,1.5745000,47750,1575,9562.22949,19197.541,-3.93764120721,-13.1670208347,0,0,
3150,3150,1.5750000,47750,1575,9565.23438,19199.7051,-2.35172548176,-9.76978385868,0,0,
3151,3151,1.5755000,47750,1575,9566.55664,19207.0371,-1.46805422076,-0.266747404037,0,0,
3152,3152,1.5760000,47751,1576,9561.62793,19211.9668,-6.17110126851,7.42540146184,0,0,
3153,3153,1.5765000,47752,1577,9558.9834,19229.877,-6.6915466466,24.4876588935,0,0,
3154,3154,1.5770000,47752,1577,9558.50293,19242.377,-6.6543304882,34.0427266392,0,0,
3155,3155,1.5775000,47752,1577,9561.02734,19248.748,-3.28231971599,33.4721629751,0,0,
3156,3156,1.5780000,47753,1578,9560.66699,19239.252,-2.09153228827,17.6412413045,0,0,
3157,3157,1.5785000,47753,1578,9560.30566,19228.6738,0.799961199702,1.78686728258,0,0,
3158,3158,1.5790000,47754,1579,9561.3877,19219.418,3.78849553626,-10.4999778262,0,0,
3159,3159,1.5795000,47755,1580,9561.14746,19208.2402,3.66641642968,-20.4699997092,0,0,
3160,3160,1.5800000,47755,1580,9561.86816,19215.9316,2.1412121669,-11.9919447409,0,0,
3161,3161,1.5805000,47755,1580,9560.78613,19234.5645,-0.254987792978,6.43896244384,0,0,
3162,3162,1.5810000,47756,1581,9567.87891,19249.9492,4.36805011329,16.9101882018,0,0,
3163,3163,1.5815000,47756,1581,9571.72559,19253.1953,7.58670322423,15.6417374355,0,0,
3164,3164,1.5820000,47757,1582,9566.79688,19254.3965,2.77750177258,11.9767959841,0,0,
3165,3165,1.5825000,47758,1583,9563.07031,19245.502,-1.15200810196,-0.340916281283,0,0,
3166,3166,1.5830000,47758,1583,9570.64355,19233.9629,6.5455815299,-14.2224381314,0,0,
3167,3167,1.5835000,47758,1583,9572.32617,19234.4434,6.09515239055,-14.5485401101,0,0,
3168,3168,1.5840000,47759,1584,9574.73047,19247.7871,6.08461990788,-3.12689006992,0,0,
3169,3169,1.5845000,47759,1584,9574.37012,19259.3262,1.78028488355,7.62020545274,0,0,
3170,3170,1.5850000,47760,1585,9574.85059,19266.0566,0.596677100894,11.9354273595,0,0,
3171,3171,1.5855000,47761,1586,9573.88867,19258.4844,-2.15441301922,0.277764518774,0,0,
3172,3172,1.5860000,47761,1586,9572.80762,19258.8457,-2.38673559037,-6.0164927525,0,0,
3173,3173,1.5865000,47761,1586,9575.21094,19253.3145,-1.57543032301,-14.928577003,0,0,
3174,3174,1.5870000,47762,1587,9578.33691,19241.8965,1.0254644516,-24.817357815,0,0,
3175,3175,1.5875000,47763,1588,9579.05762,19236.0059,-1.19763368035,-26.8205472176,0,0,
3176,3176,1.5880000,47763,1588,9578.81738,19238.291,-2.47508964328,-20.1260992029,0,0,
3177,3177,1.5885000,47763,1588,9581.70215,19240.334,-1.72962716007,-14.7632065906,0,0,
3178,3178,1.5890000,47764,1589,9585.30762,19238.291,1.45399851542,-15.3616243115,0,0,
3179,3179,1.5895000,47765,1590,9587.11133,19220.5,1.68111188866,-28.9975248778,0,0,
3180,3180,1.5900000,47765,1590,9584.10645,19214.4902,-2.2544335284,-29.1143434894,0,0,
3181,3181,1.5905000,47765,1590,9585.90918,19211.7246,-2.44735362845,-27.745918326,0,0,
3182,3182,1.5910000,47766,1591,9584.94727,19217.7363,-2.86753934038,-17.6863989816,0,0,
3183,3183,1.5915000,47767,1592,9585.78906,19217.2559,-2.62967490167,-17.0433189369,0,0,
3184,3184,1.5920000,47767,1592,9585.30762,19215.8125,-2.41432666937,-14.6332297911,0,0,
3185,3185,1.5925000,47767,1592,9590.23633,19219.0566,0.730300557241,-6.48520648545,0,0,
3186,3186,1.5930000,47768,1593,9590.95801,19212.3262,0.241064332352,-9.28948396962,0,0,
3187,3187,1.5935000,47768,1593,9588.91406,19201.6289,-3.37464389972,-12.4163957927,0,0,
3188,3188,1.5940000,47769,1594,9590.23633,19192.7324,-3.40207672129,-14.2004636709,0,0,
3189,3189,1.5945000,47769,1594,9593.84277,19185.7617,-0.610948880192,-14.6940561361,0,0,
3190,3190,1.5950000,47770,1595,9592.15918,19190.8105,-4.57608336367,-6.27718813317,0,0,
3191,3191,1.5955000,47770,1595,9589.03418,19192.0117,-7.82872846127,-1.14715994861,0,0,
3192,3192,1.5960000,47771,1596,9585.42871,19191.6504,-9.96195376055,3.99423367033,0,0,
3193,3193,1.5965000,47771,1596,9583.38477,19198.623,-9.54538838784,12.5758548103,0,0,
3194,3194,1.5970000,47772,1597,9577.375,19203.1914,-13.6725331199,19.0494687494,0,0,
3195,3195,1.5975000,47772,1597,9576.29297,19207.5176,-12.5720015529,22.9430223622,0,0,
3196,3196,1.5980000,47773,1598,9579.53809,19217.8555,-6.83085294332,31.9008152881,0,0,
3197,3197,1.5985000,47774,1599,9580.13965,19226.2695,-2.63211312357,35.9262218371,0,0,
3198,3198,1.5990000,47774,1599,9584.58691,19235.0449,3.34683875559,38.3669226151,0,0,
3199,3199,1.5995000,47774,1599,9583.98535,19240.9355,3.21500946559,38.78746109,0,0,
3200,3200,1.6000000,47775,1600,9575.69238,19244.541,-4.91558676911,34.2876288912,0,0,
3201,3201,1.6005000,47776,1601,9572.68652,19240.6934,-6.44157666743,24.3530204689,0,0,
3202,3202,1.6010000,47776,1601,9573.04785,19241.416,-6.08717253649,18.9379300369,0,0,
3203,3203,1.6015000,47777,1602,9577.85547,19246.7051,0.322203243062,20.3386215487,0,0,
3204,3204,1.6020000,47777,1602,9577.49512,19248.0254,2.75507172842,17.7661370058,0,0,
3205,3205,1.6025000,47777,1602,9573.4082,19236.4863,0.831723944754,5.95644037889,0,0,
3206,3206,1.6030000,47778,1603,9579.05762,19224.4668,6.78537071313,-4.98524883807,0,0,
3207,3207,1.6035000,47779,1604,9588.19238,19212.0859,13.9639591793,-15.1585295475,0,0,
3208,3208,1.6040000,47779,1604,9588.91406,19210.043,12.6258164688,-15.8887918819,0,0,
3209,3209,1.6045000,47779,1604,9585.54785,19206.918,7.0552509891,-14.2388762681,0,0,
3210,3210,1.6050000,47780,1605,9580.25977,19210.1621,2.19632830069,-6.76989375135,0,0,
3211,3211,1.6055000,47780,1605,9580.5,19213.5293,2.58576940582,-0.660345624389,0,0,
3212,3212,1.6060000,47781,1606,9580.13965,19224.1074,4.14810627037,6.33599031254,0,0,
3213,3213,1.6065000,47781,1606,9578.33691,19235.8867,2.25546842914,14.5654872642,0,0,
3214,3214,1.6070000,47782,1607,9583.26465,19238.6504,7.1975364008,16.1044262338,0,0,
3215,3215,1.6075000,47783,1608,9580.86035,19230.3574,3.78458396406,8.09188566328,0,0,
3216,3216,1.6080000,47783,1608,9585.54785,19221.7012,7.97447321529,0.847814681972,0,0,
3217,3217,1.6085000,47783,1608,9590.35645,19217.6152,10.2624697599,-1.41817397658,0,0,
3218,3218,1.6090000,47784,1609,9585.30762,19225.5488,5.52377872237,5.63363613182,0,0,
3219,3219,1.6095000,47784,1609,9576.41309,19240.8145,-1.75679709686,19.0420587627,0,0,
3220,3220,1.6100000,47785,1610,9577.85547,19248.0254,1.49728846864,21.5423711056,0,0,
3221,3221,1.6105000,47786,1611,9581.70215,19253.3145,4.59960159963,19.4935738779,0,0,
3222,3222,1.6110000,47786,1611,9583.625,19251.1523,7.54346993054,10.84353789,0,0,
3223,3223,1.6115000,47787,1612,9579.89941,19248.5078,4.27453315183,2.03186066557,0,0,
3224,3224,1.6120000,47787,1612,9575.81152,19243.3379,2.41044396619,-5.42191220872,0,0,
3225,3225,1.6125000,47788,1613,9575.81152,19234.9238,2.2209512745,-13.3072363864,0,0,
3226,3226,1.6130000,47788,1613,9579.17773,19226.6309,5.82790898525,-19.1216228736,0,0,
3227,3227,1.6135000,47789,1614,9579.29785,19226.1504,5.75023843042,-15.0947809021,0,0,
3228,3228,1.6140000,47789,1614,9582.0625,19226.0293,7.30294608142,-12.6700984502,0,0,
3229,3229,1.6145000,47790,1615,9577.97559,19223.0254,3.29457918309,-14.1705972452,0,0,
3230,3230,1.6150000,47790,1615,9576.17285,19227.5918,1.21185919352,-12.2628265529,0,0,
3231,3231,1.6155000,47791,1616,9577.01465,19230.8379,2.72724343188,-10.2227961593,0,0,
3232,3232,1.6160000,47791,1616,9578.69727,19230.1152,5.24532337487,-9.89901298465,0,0,
3233,3233,1.6165000,47791,1616,9579.77832,19229.2754,6.96951241685,-12.2061682627,0,0,
3234,3234,1.6170000,47792,1617,9581.94238,19231.6797,8.56167926917,-9.75698043482,0,0,
3235,3235,1.6175000,47793,1618,9581.22168,19237.9297,6.62771543014,-5.37023828178,0,0,
3236,3236,1.6180000,47793,1618,9581.70215,19237.209,6.01009743686,-7.49426698215,0,0,
3237,3237,1.6185000,47793,1618,9583.14453,19234.2031,7.75762815914,-11.6297459742,0,0,
3238,3238,1.6190000,47794,1619,9580.5,19231.6797,4.53261715811,-14.9010489873,0,0,
3239,3239,1.6195000,47794,1619,9579.89941,19231.9199,3.55868890345,-13.4574561729,0,0,
3240,3240,1.6200000,47795,1620,9578.57715,19236.2461,1.84580871264,-10.2305756088,0,0,
3241,3241,1.6205000,47796,1621,9579.29785,19234.3223,1.5725544041,-10.9978188427,0,0,
3242,3242,1.6210000,47796,1621,9582.66309,19237.9297,1.7191143874,-8.20232931374,0,0,
3243,3243,1.6215000,47797,1622,9585.66895,19238.7715,2.51461364525,-6.79774608374,0,0,
3244,3244,1.6220000,47797,1622,9583.14453,19242.1367,0.445935828265,-2.87384888911,0,0,
3245,3245,1.6225000,47798,1623,9586.38965,19243.5801,3.161029578,1.74901001962,0,0,
3246,3246,1.6230000,47798,1623,9581.22168,19244.7812,-3.58176265423,4.63909823543,0,0,
3247,3247,1.6235000,47799,1624,9579.17773,19242.9785,-7.43220802594,3.62669612183,0,0,
3248,3248,1.6240000,47799,1624,9581.10059,19238.4102,-6.04970203763,-2.08444531936,0,0,
3249,3249,1.6245000,47799,1624,9580.25977,19232.7598,-7.32000359209,-5.0748032615,0,0,
3250,3250,1.6250000,47800,1625,9579.77832,19229.2754,-6.73591161335,-6.06986087317,0,0,
3251,3251,1.6255000,47801,1626,9583.38477,19230.1152,-4.02560171932,-3.35150787195,0,0,
3252,3252,1.6260000,47801,1626,9584.4668,19226.9902,-2.46929880348,-8.39885084737,0,0,
3253,3253,1.6265000,47802,1627,9582.78418,19225.5488,-4.86327590999,-9.64545410742,0,0,
3254,3254,1.6270000,47802,1627,9579.17773,19228.4336,-8.66690574103,-3.40097049995,0,0,
3255,3255,1.6275000,47803,1628,9581.82227,19228.1934,-6.55120906578,1.11460511228,0,0,
3256,3256,1.6280000,47803,1628,9583.50488,19224.5879,-5.79541182173,1.9505346587,0,0,
3257,3257,1.6285000,47804,1629,9583.98535,19225.0684,-7.02748024794,5.1957903108,0,0,
3258,3258,1.6290000,47804,1629,9581.82227,19225.0684,-7.28220191164,4.83166164009,0,0,
3259,3259,1.6295000,47805,1630,9584.94727,19223.7461,-2.79685749097,3.8934400613,0,0,
3260,3260,1.6300000,47805,1630,9590.35645,19224.4668,1.4559374244,5.10876004849,0,0,
3261,3261,1.6305000,47806,1631,9589.1543,19219.418,-2.15220558058,0.230207049646,0,0,
3262,3262,1.6310000,47806,1631,9583.26465,19218.9375,-6.94644640159,0.983927098134,0,0,
3263,3263,1.6315000,47807,1632,9585.06738,19224.3457,-4.41214978351,5.67694962499,0,0,
3264,3264,1.6320000,47807,1632,9581.82227,19228.9141,-5.50648135416,10.713782465,0,0,
3265,3265,1.6325000,47808,1633,9582.66309,19226.752,-5.31464198448,10.4165673546,0,0,
3266,3266,1.6330000,47808,1633,9585.54785,19228.0723,-3.20253051499,13.1265981199,0,0,
3267,3267,1.6335000,47809,1634,9585.54785,19221.8223,-3.52829452576,9.49056511504,0,0,
3268,3268,1.6340000,47809,1634,9586.87012,19223.0254,-3.50039365596,11.3978706339,0,0,
3269,3269,1.6345000,47810,1635,9590.95801,19234.2031,0.185621182153,20.2789133823,0,0,
3270,3270,1.6350000,47810,1635,9584.82715,19242.2559,-6.04551497426,20.7813921665,0,0,
3271,3271,1.6355000,47811,1636,9586.62988,19253.916,-4.19067608654,25.032927751,0,0,
3272,3272,1.6360000,47811,1636,9587.47168,19254.0371,-3.05335573131,20.6876287094,0,0,
3273,3273,1.6365000,47812,1637,9586.26953,19245.3809,-3.44860363935,7.6146307633,0,0,
3274,3274,1.6370000,47812,1637,9585.42871,19236.6074,-4.0431234798,-2.53327384406,0,0,
3275,3275,1.6375000,47812,1637,9587.71191,19225.1875,-2.04658828957,-14.1091468153,0,0,
3276,3276,1.6380000,47813,1638,9592.39941,19217.1348,1.40565673651,-19.3807915204,0,0,
3277,3277,1.6385000,47813,1638,9592.39941,19213.7676,1.47742285972,-19.6398215762,0,0,
3278,3278,1.6390000,47814,1639,9589.99609,19220.0195,-0.698093481687,-12.2001990496,0,0,
3279,3279,1.6395000,47814,1639,9592.15918,19225.1875,0.967954721796,-6.03256423719,0,0,
3280,3280,1.6400000,47815,1640,9590.95801,19230.7168,-0.508379638635,-2.49494944283,0,0,
3281,3281,1.6405000,47815,1640,9592.64062,19228.9141,-0.0794337038827,-3.29117510295,0,0,
3282,3282,1.6410000,47816,1641,9592.04004,19226.0293,-3.35685567598,-6.63798832584,0,0,
3283,3283,1.6415000,47817,1642,9589.39551,19230.3574,-6.67335904772,-1.94993070934,0,0,
3284,3284,1.6420000,47817,1642,9586.0293,19230.5977,-7.38970264674,-1.34363310347,0,0,
3285,3285,1.6425000,47818,1643,9582.18262,19235.5254,-9.28177798835,5.61856290787,0,0,
3286,3286,1.6430000,47818,1643,9581.34082,19240.5742,-8.37521661514,10.7599091981,0,0,
3287,3287,1.6435000,47818,1643,9582.30273,19238.0488,-7.23711429347,8.39842767854,0,0,
3288,3288,1.6440000,47819,1644,9587.35156,19233.7227,-2.51639645569,3.24100767102,0,0,
3289,3289,1.6445000,47820,1645,9586.14941,19229.9961,-3.34800034408,1.58633186707,0,0,
3290,3290,1.6450000,47820,1645,9589.51465,19233.1211,0.725339814819,4.98600707628,0,0,
3291,3291,1.6455000,47820,1645,9590.47656,19235.6465,0.559159981729,6.28679210215,0,0,
3292,3292,1.6460000,47821,1646,9589.39551,19230.3574,0.37084287824,-1.7889681049,0,0,
3293,3293,1.6465000,47821,1646,9589.03418,19230.5977,0.210823553466,-3.14391399562,0,0,
3294,3294,1.6470000,47822,1647,9588.07324,19230.5977,-0.294430694882,-2.34324379116,0,0,
3295,3295,1.6475000,47823,1648,9584.94727,19234.6836,-3.35929274993,3.58278541207,0,0,
3296,3296,1.6480000,47823,1648,9584.22656,19239.4922,-3.76069361993,9.23308754293,0,0,
3297,3297,1.6485000,47824,1649,9585.78906,19231.9199,-2.61071711035,2.26553853383,0,0,
3298,3298,1.6490000,47824,1649,9586.14941,19230.959,0.149832903526,-0.0999495087891,0,0,
3299,3299,1.6495000,47825,1650,9582.42285,19230.5977,-1.4165803652,-1.03558410597,0,0,
3300,3300,1.6500000,47825,1650,9584.22656,19239.252,0.595544589515,5.32674676335,0,0,
3301,3301,1.6505000,47826,1651,9587.71191,19238.0488,3.47733973831,2.30372104161,0,0,
3302,3302,1.6510000,47826,1651,9590.95801,19229.5156,7.92893221942,-6.1990444079,0,0,
3303,3303,1.6515000,47827,1652,9591.19824,19229.3965,7.8579987742,-7.77248814057,0,0,
3304,3304,1.6520000,47827,1652,9589.51465,19227.3516,7.73831838664,-8.80943492393,0,0,
3305,3305,1.6525000,47828,1653,9586.51074,19222.4238,4.03113970051,-9.78566047549,0,0,
3306,3306,1.6530000,47828,1653,9588.67383,19220.2598,5.08617380376,-8.54866676025,0,0,
3307,3307,1.6535000,47829,1654,9587.35156,19219.1777,3.81127810775,-4.92099538745,0,0,
3308,3308,1.6540000,47829,1654,9587.35156,19222.9043,3.00502916355,-0.11616040473,0,0,
3309,3309,1.6545000,47830,1655,9590.23633,19226.752,5.370351591,1.77828276343,0,0,
3310,3310,1.6550000,47830,1655,9592.15918,19232.0391,7.41830981013,1.93753642786,0,0,
3311,3311,1.6555000,47830,1655,9590.23633,19241.416,4.89726400425,5.78298817625,0,0,
3312,3312,1.6560000,47831,1656,9589.63574,19250.3105,4.35622534624,11.8745627318,0,0,
3313,3313,1.6565000,47832,1657,9589.1543,19244.0605,4.57302409846,4.1084415559,0,0,
3314,3314,1.6570000,47832,1657,9591.91895,19240.334,6.78310617301,0.313768660569,0,0,
3315,3315,1.6575000,47833,1658,9596.24707,19244.3008,9.13900041084,2.80989247258,0,0,
3316,3316,1.6580000,47833,1658,9597.32812,19256.5605,7.79111039558,11.6711099583,0,0,
3317,3317,1.6585000,47834,1659,9593.12109,19250.5508,3.98766580332,2.85155912589,0,0,
3318,3318,1.6590000,47834,1659,9590.95801,19238.1699,2.72464319246,-11.5028179137,0,0,
3319,3319,1.6595000,47834,1659,9584.58691,19235.2852,-2.65860775086,-14.4351043655,0,0,
3320,3320,1.6600000,47835,1660,9583.02441,19229.877,-2.52435766796,-20.1321151431,0,0,
3321,3321,1.6605000,47836,1661,9586.51074,19219.0566,0.711323401904,-25.7501094157,0,0,
3322,3322,1.6610000,47836,1661,9595.52539,19213.7676,6.75697382651,-26.6488990643,0,0,
3323,3323,1.6615000,47837,1662,9595.16504,19226.9902,5.01939799099,-11.963270374,0,0,
3324,3324,1.6620000,47837,1662,9594.9248,19236.8477,5.66558185172,-1.8623025254,0,0,
3325,3325,1.6625000,47837,1662,9594.08301,19238.1699,4.81137861331,0.801193885735,0,0,
3326,3326,1.6630000,47838,1663,9592.76074,19231.9199,2.9894511849,-3.50862398434,0,0,
3327,3327,1.6635000,47839,1664,9591.43848,19230.959,0.173964200432,-1.48741833121,0,0,
3328,3328,1.6640000,47839,1664,9590.95801,19239.373,-1.83219720678,6.77224898808,0,0,
3329,3329,1.6645000,47839,1664,9589.63574,19249.8301,-2.81563329542,16.5293482115,0,0,
3330,3330,1.6650000,47840,1665,9587.35156,19252.7148,-4.32458316369,16.2518863137,0,0,
3331,3331,1.6655000,47841,1666,9584.34668,19254.0371,-6.8594209912,13.8889461248,0,0,
3332,3332,1.6660000,47841,1666,9586.38965,19254.3965,-3.11472961026,10.0807015735,0,0,
3333,3333,1.6665000,47842,1667,9587.95215,19254.2773,-1.03903933606,6.03538582568,0,0,
3334,3334,1.6670000,47842,1667,9591.79883,19248.2676,2.64288017173,-0.445676488471,0,0,
3335,3335,1.6675000,47842,1667,9595.88574,19236.9668,5.32255974549,-9.03813917245,0,0,
3336,3336,1.6680000,47843,1668,9596.00586,19235.5254,3.76660498194,-7.62862286525,0,0,
3337,3337,1.6685000,47844,1669,9595.76562,19233.2422,1.35015839168,-6.02336499463,0,0,
3338,3338,1.6690000,47844,1669,9596.60742,19228.5527,2.55715743643,-9.20959719192,0,0,
3339,3339,1.6695000,47845,1670,9599.25098,19229.7559,5.11615271248,-6.48921395767,0,0,
3340,3340,1.6700000,47845,1670,9597.80957,19241.5352,1.80331192856,2.80758498209,0,0,
3341,3341,1.6705000,47845,1670,9596.4873,19244.6621,-1.2498392157,4.88700250192,0,0,
3342,3342,1.6710000,47846,1671,9592.52051,19243.8184,-3.96956503629,4.44918508351,0,0,
3343,3343,1.6715000,47847,1672,9595.16504,19242.2559,-1.2082652115,0.811178701397,0,0,
3344,3344,1.6720000,47847,1672,9596.24707,19232.7598,1.30811727754,-6.84483818828,0,0,
3345,3345,1.6725000,47847,1672,9604.66113,19222.0625,7.42537891991,-11.6903221024,0,0,
3346,3346,1.6730000,47848,1673,9606.34375,19204.2734,5.77900558736,-21.7472944869,0,0,
3347,3347,1.6735000,47849,1674,9605.1416,19198.8633,3.09721222864,-18.2243015538,0,0,
3348,3348,1.6740000,47849,1674,9600.33301,19210.8848,-2.97628334356,-3.29813628328,0,0,
3349,3349,1.6745000,47850,1675,9593.72168,19227.832,-9.24348461931,11.2123331575,0,0,
3350,3350,1.6750000,47850,1675,9590.23633,19236.127,-10.7010743596,13.6018953253,0,0,
3351,3351,1.6755000,47851,1676,9592.28027,19236.0059,-7.38708239997,8.29160505227,0,0,
3352,3352,1.6760000,47851,1676,9591.91895,19235.0449,-6.3850937788,6.17534842242,0,0,
3353,3353,1.6765000,47852,1677,9587.5918,19226.0293,-8.2110818232,0.311925014294,0,0,
3354,3354,1.6770000,47852,1677,9587.23145,19212.2051,-7.28444130964,-8.14479679448,0,0,
3355,3355,1.6775000,47853,1678,9585.42871,19215.6934,-8.27037917446,-2.4434169348,0,0,
3356,3356,1.6780000,47853,1678,9585.06738,19223.5059,-7.55990320722,4.67866310004,0,0,
3357,3357,1.6785000,47853,1678,9585.42871,19228.1934,-4.02404575842,10.200695734,0,0,
3358,3358,1.6790000,47854,1679,9584.82715,19226.1504,-2.00889467541,8.5974879433,0,0,
3359,3359,1.6795000,47855,1680,9584.70703,19230.5977,0.020250804369,11.5448609301,0,0,
3360,3360,1.6800000,47855,1680,9587.35156,19241.416,3.53361377062,18.0872684306,0,0,
3361,3361,1.6805000,47855,1680,9593.48145,19245.623,7.48819159784,20.9509642274,0,0,
3362,3362,1.6810000,47856,1681,9603.09863,19242.0176,11.6274092015,14.5772980145,0,0,
3363,3363,1.6815000,47856,1681,9607.06445,19242.0176,12.5695338855,8.96958141938,0,0,
3364,3364,1.6820000,47857,1682,9608.62793,19239.4922,12.7280537954,3.36556565421,0,0,
3365,3365,1.6825000,47858,1683,9601.89551,19238.4102,5.36973364655,2.40626249258,0,0,
3366,3366,1.6830000,47858,1683,9597.68848,19231.9199,0.907311514823,-1.84530990264,0,0,
3367,3367,1.6835000,47859,1684,9593.96289,19239.9727,-3.36825263369,6.4732411631,0,0,
3368,3368,1.6840000,47859,1684,9594.80371,19249.2285,-3.55763690445,11.6284335181,0,0,
3369,3369,1.6845000,47860,1685,9592.15918,19249.1074,-5.31983443235,8.84362373763,0,0,
3370,3370,1.6850000,47860,1685,9591.91895,19242.1367,-4.5570005206,0.727952558132,0,0,
3371,3371,1.6855000,47860,1685,9595.40527,19241.5352,-1.41464308772,-0.935242506293,0,0,
3372,3372,1.6860000,47861,1686,9596.00586,19240.5742,-0.786198127713,-3.11915313538,0,0,
3373,3373,1.6865000,47862,1687,9596.4873,19239.0117,-0.800272936897,-5.5758893278,0,0,
3374,3374,1.6870000,47862,1687,9601.05469,19232.4004,2.2075948902,-9.26582235581,0,0,
3375,3375,1.6875000,47862,1687,9601.89551,19226.9902,1.17315714588,-9.54114535093,0,0,
3376,3376,1.6880000,47863,1688,9599.73242,19231.9199,-1.80258366692,-2.73661874249,0,0,
3377,3377,1.6885000,47864,1689,9600.69434,19239.4922,-2.24184954812,5.81001102657,0,0,
3378,3378,1.6890000,47864,1689,9596.00586,19243.459,-5.45999819024,7.87980594921,0,0,
3379,3379,1.6895000,47865,1690,9596.84766,19247.9062,-3.6354124238,8.99612513973,0,0,
3380,3380,1.6900000,47865,1690,9591.91895,19249.2285,-7.63720337779,4.12549947195,0,0,
