record_index,sequence,time_s,tick_ms,tick_elapsed_ms,ch1_raw_uV,ch2_raw_uV,ch1_filtered_uV,ch2_filtered_uV,sequence_gap_before,byte_offset_adjustment,imputed_fields
2000,2000,1.0000000,4452,1000,9987.38574,19233.6035,-24.6375893291,-2.27488972951,0,0,
2001,2001,1.0005000,4453,1001,9985.3418,19221.4629,-24.6298409083,-15.8204080528,0,0,
2002,2002,1.0010000,4453,1001,9989.06836,19201.3887,-20.051172527,-33.4513361844,0,0,
2003,2003,1.0015000,4454,1002,9991.35254,19181.916,-16.8937894403,-45.0962353333,0,0,
2004,2004,1.0020000,4454,1002,9996.04004,19172.5391,-11.8267426663,-45.5139444119,0,0,
2005,2005,1.0025000,4455,1003,9999.7666,19173.2598,-9.45199121897,-39.1037524158,0,0,
2006,2006,1.0030000,4455,1003,9995.07812,19188.0449,-15.0859100508,-20.9864461862,0,0,
2007,2007,1.0035000,4456,1004,9990.51074,19203.3105,-19.1869626579,-6.79605356366,0,0,
2008,2008,1.0040000,4456,1004,9987.98633,19203.9121,-21.5485035553,-5.33019736899,0,0,
2009,2009,1.0045000,4457,1005,9984.98145,19199.1035,-23.8133296297,-12.2221185882,0,0,
2010,2010,1.0050000,4457,1005,9981.49512,19189.4883,-24.1057315929,-19.6534070319,0,0,
2011,2011,1.0055000,4458,1006,9986.42383,19180.7129,-19.2029312504,-27.2038384625,0,0,
2012,2012,1.0060000,4458,1006,9986.90527,19172.7793,-17.2392509547,-28.1516335334,0,0,
2013,2013,1.0065000,4459,1007,9989.18848,19174.1016,-14.2320313579,-22.4120568852,0,0,
2014,2014,1.0070000,4459,1007,9995.31934,19171.5781,-7.72113774869,-21.5719810734,0,0,
2015,2015,1.0075000,4460,1008,9998.9248,19166.2891,-4.00806688261,-23.2520337277,0,0,
2016,2016,1.0080000,4460,1008,9997.12207,19169.0527,-6.45528810176,-17.1678166194,0,0,
2017,2017,1.0085000,4461,1009,9990.87109,19174.4629,-11.3760187485,-9.53772238989,0,0,
2018,2018,1.0090000,4461,1009,9992.07324,19185.4004,-8.36544452631,2.84732969334,0,0,
2019,2019,1.0095000,4462,1010,9994.35742,19192.8535,-7.26390810332,11.8604111099,0,0,
2020,2020,1.0100000,4462,1010,9992.55371,19192.373,-6.6263122724,11.1310344532,0,0,
2021,2021,1.0105000,4463,1011,9995.43848,19190.209,-3.16122744822,8.68302816625,0,0,
2022,2022,1.0110000,4463,1011,10000.2471,19195.8574,1.81341583368,10.5355467618,0,0,
2023,2023,1.0115000,4464,1012,10006.6182,19193.4551,6.74508608493,6.18101388237,0,0,
2024,2024,1.0120000,4464,1012,10008.4209,19187.084,5.6858952364,1.59356828688,0,0,
2025,2025,1.0125000,4465,1013,10007.9404,19182.5156,4.02425524962,-2.13728326296,0,0,
2026,2026,1.0130000,4465,1013,10004.8154,19182.5156,0.48257128588,-2.82702252455,0,0,
2027,2027,1.0135000,4466,1014,10009.2627,19181.4355,5.05869109198,-3.56466500517,0,0,
2028,2028,1.0140000,4466,1014,10009.3828,19177.709,4.98761123364,-5.76573829269,0,0,
2029,2029,1.0145000,4467,1015,10010.7041,19173.0215,4.35764777162,-7.56278545529,0,0,
2030,2030,1.0150000,4467,1015,10007.9404,19173.7402,1.7273212452,-3.04068289267,0,0,
2031,2031,1.0155000,4468,1016,10005.6562,19183.1172,-0.313847997435,8.05371827516,0,0,
2032,2032,1.0160000,4468,1016,10004.334,19190.0879,-1.92224012943,13.8923174442,0,0,
2033,2033,1.0165000,4469,1017,9997.3623,19198.502,-5.7585498541,19.6248539339,0,0,
2034,2034,1.0170000,4469,1017,9997.00195,19200.4258,-3.51334033144,18.0871236416,0,0,
2035,2035,1.0175000,4470,1018,9996.6416,19196.7012,-3.00712877991,11.4829336442,0,0,
2036,2036,1.0180000,4470,1018,10004.5742,19192.4941,6.2620363945,4.71960715111,0,0,
2037,2037,1.0185000,4471,1019,10003.1318,19191.6504,6.21127194212,3.61375929837,0,0,
2038,2038,1.0190000,4471,1019,10003.4932,19190.8105,8.45768613161,4.58322579412,0,0,
2039,2039,1.0195000,4472,1020,10002.29,19188.0449,8.37697192857,3.02648832018,0,0,
2040,2040,1.0200000,4472,1020,10005.6562,19188.2871,12.5688135321,4.47923394615,0,0,
2041,2041,1.0205000,4473,1021,10005.5361,19185.6426,12.8538441297,4.30374232639,0,0,
2042,2042,1.0210000,4473,1021,10005.5361,19181.3145,11.9444341445,3.83562156375,0,0,
2043,2043,1.0215000,4474,1022,10007.2188,19179.2715,13.1576227993,6.52513220255,0,0,
2044,2044,1.0220000,4474,1022,10006.1377,19179.752,11.8371298901,9.1139080609,0,0,
2045,2045,1.0225000,4475,1023,10002.5312,19181.1934,8.11321950513,8.501809078,0,0,
2046,2046,1.0230000,4475,1023,9997.24219,19183.7188,4.59456857504,7.24316672114,0,0,
2047,2047,1.0235000,4476,1024,9998.56445,19185.041,7.3587539387,4.24397985681,0,0,
2048,2048,1.0240000,4476,1024,9998.32324,19183.4785,7.30565458742,3.35759774289,0,0,
2049,2049,1.0245000,4477,1025,10002.1709,19179.3906,10.4732918126,-1.46490131517,0,0,
2050,2050,1.0250000,4477,1025,10004.8154,19174.8223,13.3438120168,-3.39405984577,0,0,
2051,2051,1.0255000,4478,1026,10007.2188,19171.457,12.3591141261,-6.03215025877,0,0,
2052,2052,1.0260000,4478,1026,10005.2959,19170.0156,9.74815954868,-3.41882002026,0,0,
2053,2053,1.0265000,4479,1027,10002.0498,19172.9004,5.98530538331,-0.418753632889,0,0,
2054,2054,1.0270000,4479,1027,10001.4492,19170.9766,5.07160498539,-2.08083546909,0,0,
2055,2055,1.0275000,4480,1028,9998.9248,19169.5332,3.54558081936,-2.94612497098,0,0,
2056,2056,1.0280000,4480,1028,10004.0938,19163.4043,8.56192196664,-8.27940365737,0,0,
2057,2057,1.0285000,4481,1029,10006.1377,19163.5254,11.1646751902,-7.58263129431,0,0,
2058,2058,1.0290000,4481,1029,10002.8916,19164.3652,8.2343718797,-5.90519036923,0,0,
2059,2059,1.0295000,4482,1030,10002.5312,19164.8457,6.06261041781,-2.59726894396,0,0,
2060,2060,1.0300000,4482,1030,10006.8584,19162.6816,11.0078447307,-1.73560516984,0,0,
2061,2061,1.0305000,4483,1031,10004.6943,19162.4434,8.03828583036,0.657263290567,0,0,
2062,2062,1.0310000,4483,1031,10001.6895,19158.5957,4.97286416453,-3.37684286992,0,0,
2063,2063,1.0315000,4484,1032,10004.6943,19161.1191,6.77094815487,0.669520730742,0,0,
2064,2064,1.0320000,4484,1032,10006.4971,19158.3555,6.904144648,2.17751471302,0,0,
2065,2065,1.0325000,4485,1033,10003.3721,19157.5137,4.1831382839,3.52735519554,0,0,
2066,2066,1.0330000,4485,1033,10006.6182,19159.1973,7.46404188339,4.78699795239,0,0,
2067,2067,1.0335000,4486,1034,10004.9346,19163.5254,5.76661824233,8.58770256557,0,0,
2068,2068,1.0340000,4486,1034,10003.6123,19173.7402,5.1156708253,17.0610422201,0,0,
2069,2069,1.0345000,4487,1035,10003.4932,19180.3535,4.06297375884,21.3097432942,0,0,
2070,2070,1.0350000,4487,1035,10004.5742,19178.791,5.7073525312,17.9668598068,0,0,
2071,2071,1.0355000,4488,1036,10001.6895,19176.2656,3.34196193622,13.0098509414,0,0,
2072,2072,1.0360000,4488,1036,10007.3389,19171.9395,7.39491925215,6.8727226561,0,0,
2073,2073,1.0365000,4489,1037,10009.3828,19165.0879,9.97237404984,-0.39375042701,0,0,
2074,2074,1.0370000,4489,1037,10007.5791,19163.7637,7.4141656551,-1.15391184536,0,0,
2075,2075,1.0375000,4490,1038,10002.7715,19167.7324,1.51764104698,3.07601263072,0,0,
2076,2076,1.0380000,4490,1038,10003.0117,19169.4141,0.939400206991,3.97943239845,0,0,
2077,2077,1.0385000,4491,1039,10000.3672,19163.2832,-0.393355239062,-0.863787802273,0,0,
2078,2078,1.0390000,4491,1039,10000.127,19160.7598,0.734364918498,-0.311731169253,0,0,
2079,2079,1.0395000,4492,1040,9998.2041,19161.8418,-0.0530407776368,2.79788003728,0,0,
2080,2080,1.0400000,4492,1040,9998.08301,19162.6816,0.385092629888,4.81126963346,0,0,
2081,2081,1.0405000,4493,1041,10003.252,19165.0879,5.31744730623,8.90084078164,0,0,
2082,2082,1.0410000,4493,1041,9998.56445,19165.0879,0.209108863535,11.202035127,0,0,
2083,2083,1.0415000,4494,1042,9998.08301,19160.3984,-0.365576670933,9.66168301808,0,0,
2084,2084,1.0420000,4494,1042,10000.6074,19162.5625,1.97489695963,12.0985074692,0,0,
2085,2085,1.0425000,4495,1043,10000.4873,19162.9238,1.55149642541,9.51867576703,0,0,
2086,2086,1.0430000,4495,1043,10003.4932,19166.0488,4.51295642774,8.04947457534,0,0,
2087,2087,1.0435000,4496,1044,10002.7715,19172.6602,2.73417681378,8.92393846484,0,0,
2088,2088,1.0440000,4496,1044,9998.08301,19179.6309,-2.65588411278,13.2305335994,0,0,
2089,2089,1.0445000,4497,1045,9995.43848,19180.3535,-6.18829865341,10.0774558195,0,0,
2090,2090,1.0450000,4497,1045,9997.24219,19181.0742,-4.19834240746,9.09116316458,0,0,
2091,2091,1.0455000,4498,1046,9995.43848,19172.6602,-7.89409940754,-1.3131244802,0,0,
2092,2092,1.0460000,4498,1046,9998.2041,19171.5781,-5.04660721435,-1.82364297379,0,0,
2093,2093,1.0465000,4499,1047,9993.27539,19166.6504,-9.20286791679,-8.32332640587,0,0,
2094,2094,1.0470000,4499,1047,9994.59766,19168.5723,-7.92270875512,-7.44747534228,0,0,
2095,2095,1.0475000,4500,1048,9997.3623,19169.5332,-4.81236167431,-7.620871541,0,0,
2096,2096,1.0480000,4500,1048,9999.04492,19164.2441,-4.49763570159,-12.8157428702,0,0,
2097,2097,1.0485000,4501,1049,9999.7666,19159.1973,-3.64858109036,-17.9494981078,0,0,
2098,2098,1.0490000,4501,1049,9995.07812,19147.1777,-7.03623780653,-27.3412184004,0,0,
2099,2099,1.0495000,4502,1050,9990.87109,19147.7773,-11.4948170027,-22.6017767488,0,0,
2100,2100,1.0500000,4502,1050,9994.2373,19156.6738,-7.30780664686,-11.1567558424,0,0,
2101,2101,1.0505000,4503,1051,9993.51562,19162.3223,-7.40179384454,-4.7277652925,0,0,
2102,2102,1.0510000,4503,1051,9996.16016,19160.6387,-4.53449342131,-7.34928479318,0,0,
2103,2103,1.0515000,4504,1052,9994.2373,19162.2012,-7.36166101657,-6.23616760252,0,0,
2104,2104,1.0520000,4504,1052,9993.03516,19158.3555,-9.0397758269,-6.84513748057,0,0,
2105,2105,1.0525000,4505,1053,9991.23145,19156.6738,-9.0148985219,-7.00522259856,0,0,
2106,2106,1.0530000,4505,1053,9990.99121,19155.3496,-8.40526486393,-8.68188925403,0,0,
2107,2107,1.0535000,4506,1054,9992.43457,19158.5957,-5.87521494409,-6.13476093808,0,0,
2108,2108,1.0540000,4506,1054,9989.06836,19163.8848,-7.33995106038,-2.72039287051,0,0,
2109,2109,1.0545000,4507,1055,9987.86621,19164.3652,-8.03574368299,-2.74843293013,0,0,
2110,2110,1.0550000,4507,1055,9990.51074,19164.6055,-4.34282173556,-1.4269804584,0,0,
2111,2111,1.0555000,4508,1056,9989.66895,19163.2832,-3.82100185057,-2.38200427362,0,0,
2112,2112,1.0560000,4508,1056,9986.06348,19164.3652,-7.69769557801,-1.25026155665,0,0,
2113,2113,1.0565000,4509,1057,9984.01953,19168.2129,-6.96905329969,2.17379702169,0,0,
2114,2114,1.0570000,4509,1057,9987.62598,19169.0527,-2.14636210738,2.01639215971,0,0,
2115,2115,1.0575000,4510,1058,9990.87109,19165.207,0.947666538435,-2.38518791154,0,0,
2116,2116,1.0580000,4510,1058,9987.74609,19161.7207,-2.4574229279,-5.70616071288,0,0,
2117,2117,1.0585000,4511,1059,9987.74609,19164.7266,-0.991493523078,-1.12294942453,0,0,
2118,2118,1.0590000,4511,1059,9988.46777,19162.4434,0.589019933092,-1.06732075781,0,0,
2119,2119,1.0595000,4512,1060,9989.42871,19163.1641,2.05401689015,0.621135568679,0,0,
2120,2120,1.0600000,4512,1060,9986.18359,19154.5098,-0.800254663915,-5.7335071878,0,0,
2121,2121,1.0605000,4513,1061,9989.90918,19150.0605,1.92618032234,-6.54367810675,0,0,
2122,2122,1.0610000,4513,1061,9986.18359,19150.543,-1.11161389778,-1.75966228314,0,0,
2123,2123,1.0615000,4514,1062,9986.90527,19154.75,-0.510759088298,6.4313243137,0,0,
2124,2124,1.0620000,4514,1062,9988.10645,19150.4219,0.189259657488,3.63330357302,0,0,
2125,2125,1.0625000,4515,1063,9986.66406,19153.4277,-1.03022494564,5.32045117353,0,0,
2126,2126,1.0630000,4515,1063,9987.02441,19154.2676,-0.371210262202,3.31263006873,0,0,
2127,2127,1.0635000,4516,1064,9988.58691,19160.3984,0.93974383333,4.93769918577,0,0,
2128,2128,1.0640000,4516,1064,9986.42383,19154.8691,-0.890706725222,-0.423368940759,0,0,
2129,2129,1.0645000,4517,1065,9986.78418,19152.5859,-1.31344198112,-2.00894052975,0,0,
2130,2130,1.0650000,4517,1065,9985.82324,19152.4668,-2.47756790832,0.0388515080077,0,0,
2131,2131,1.0655000,4518,1066,9989.06836,19153.0664,-1.29891998369,2.27450622307,0,0,
2132,2132,1.0660000,4518,1066,9985.58301,19154.6289,-4.86610967454,5.28507375649,0,0,
2133,2133,1.0665000,4519,1067,9986.18359,19155.3496,-3.29956003964,5.29767839019,0,0,
2134,2134,1.0670000,4519,1067,9983.29883,19154.1484,-6.22206596923,3.00516812483,0,0,
2135,2135,1.0675000,4520,1068,9985.58301,19158.4746,-3.84852207256,5.6478017679,0,0,
2136,2136,1.0680000,4520,1068,9987.38574,19156.6738,-3.12138379295,3.74095707775,0,0,
2137,2137,1.0685000,4521,1069,9986.78418,19154.9902,-3.15355541978,1.17825231682,0,0,
2138,2138,1.0690000,4521,1069,9986.42383,19158.2363,-1.77640855316,4.29406702819,0,0,
2139,2139,1.0695000,4522,1070,9988.70801,19157.875,-0.299959178738,3.04706707506,0,0,
2140,2140,1.0700000,4522,1070,9987.26465,19155.8301,-2.12674727547,-0.303898537902,0,0,
2141,2141,1.0705000,4523,1071,9988.22656,19152.4668,-1.11312213668,-3.79145501554,0,0,
2142,2142,1.0710000,4523,1071,9991.83301,19146.6953,1.44725920002,-8.79275631378,0,0,
2143,2143,1.0715000,4524,1072,9993.75684,19141.4082,1.72182739798,-12.3704989107,0,0,
2144,2144,1.0720000,4524,1072,9996.52051,19145.373,2.43233573338,-4.4339378587,0,0,
2145,2145,1.0725000,4525,1073,9995.19824,19147.6582,1.1624210858,-0.852502431486,0,0,
2146,2146,1.0730000,4525,1073,9993.99707,19149.4609,-0.65925688381,0.071587511216,0,0,
2147,2147,1.0735000,4526,1074,9993.03516,19148.2598,-1.72762390334,-2.28456437091,0,0,
2148,2148,1.0740000,4526,1074,9996.40039,19150.0605,1.98404364964,-2.33074203929,0,0,
2149,2149,1.0745000,4527,1075,9997.84277,19149.8223,1.95243169087,-2.29769851355,0,0,
2150,2150,1.0750000,4527,1075,9999.40527,19142.0078,2.18442867166,-7.05898298437,0,0,
2151,2151,1.0755000,4528,1076,10001.5693,19142.4883,3.64018645256,-4.37740073427,0,0,
2152,2152,1.0760000,4528,1076,10004.9346,19139.8438,4.48094293873,-5.04810524847,0,0,
2153,2153,1.0765000,4529,1077,10002.7715,19143.0898,2.31346514806,-0.916212275961,0,0,
2154,2154,1.0770000,4529,1077,10002.4111,19145.9746,0.69878863507,2.35209573109,0,0,
2155,2155,1.0775000,4530,1078,9999.16504,19147.2969,-3.28849688384,4.15497105932,0,0,
2156,2156,1.0780000,4530,1078,9995.31934,19149.3398,-6.42983180335,6.01568432387,0,0,
2157,2157,1.0785000,4531,1079,9999.64551,19153.1855,-1.42270745366,9.34991906285,0,0,
2158,2158,1.0790000,4531,1079,10001.0889,19150.543,0.0701514537392,8.01339642357,0,0,
2159,2159,1.0795000,4532,1080,10002.5312,19144.7715,1.28052273055,3.16359049703,0,0,
2160,2160,1.0800000,4532,1080,10001.9297,19141.6465,0.837542502634,2.78388641166,0,0,
2161,2161,1.0805000,4533,1081,10003.3721,19136.2383,0.526465796702,0.546530756932,0,0,
2162,2162,1.0810000,4533,1081,10003.1318,19136.8398,0.830964984287,3.83696451369,0,0,
2163,2163,1.0815000,4534,1082,10002.0498,19139.002,-0.743657806302,8.09641694927,0,0,
2164,2164,1.0820000,4534,1082,9999.52637,19144.291,-3.31876540309,13.3822566001,0,0,
2165,2165,1.0825000,4535,1083,10000.2471,19139.123,-1.92948204861,6.21013596069,0,0,
2166,2166,1.0830000,4535,1083,10006.1377,19128.9062,3.29661034022,-4.61129638552,0,0,
2167,2167,1.0835000,4536,1084,10005.6562,19128.3047,2.01833416459,-7.11059187013,0,0,
2168,2168,1.0840000,4536,1084,10000.0068,19127.7051,-2.41802285951,-4.80389641236,0,0,
2169,2169,1.0845000,4537,1085,9999.7666,19133.834,-2.71086546775,2.12343505491,0,0,
2170,2170,1.0850000,4537,1085,10001.5693,19137.4395,-0.772540106163,6.48927226909,0,0,
2171,2171,1.0855000,4538,1086,9999.40527,19136.959,-4.04562651837,6.46095400673,0,0,
2172,2172,1.0860000,4538,1086,10000.4873,19136.1191,-2.07634065011,6.22999514444,0,0,
2173,2173,1.0865000,4539,1087,10002.29,19139.8438,0.390160229186,8.42081535065,0,0,
2174,2174,1.0870000,4539,1087,10001.3291,19134.5566,-0.334085935563,2.52930335547,0,0,
2175,2175,1.0875000,4540,1088,10004.0938,19131.6699,1.68480033649,-1.18488543065,0,0,
2176,2176,1.0880000,4540,1088,10006.2568,19130.8301,2.27131366578,-0.702565667106,0,0,
2177,2177,1.0885000,4541,1089,10006.8584,19126.0215,2.92774583519,-4.36601535336,0,0,
2178,2178,1.0890000,4541,1089,10006.6182,19123.498,3.67942272232,-5.22328146338,0,0,
2179,2179,1.0895000,4542,1090,10004.0938,19125.1797,0.593347554243,-2.43082679517,0,0,
2180,2180,1.0900000,4542,1090,10002.6514,19124.3379,-0.33977242931,-2.62571940222,0,0,
2181,2181,1.0905000,4543,1091,10004.334,19124.2168,1.52913749049,-1.71551226536,0,0,
2182,2182,1.0910000,4543,1091,10003.3721,19125.541,0.205692786304,0.347529162822,0,0,
2183,2183,1.0915000,4544,1092,10004.0938,19124.8184,0.549915235916,0.162112989829,0,0,
2184,2184,1.0920000,4544,1092,10005.1748,19127.4629,0.949189201805,3.65125722787,0,0,
2185,2185,1.0925000,4545,1093,10002.7715,19132.9922,0.417656492889,7.72115635074,0,0,
2186,2186,1.0930000,4545,1093,10000.3672,19136.1191,-0.62218166067,7.66888817906,0,0,
2187,2187,1.0935000,4546,1094,10001.209,19141.2871,1.39604076725,9.00110464611,0,0,
2188,2188,1.0940000,4546,1094,9998.56445,19141.2871,0.424849917519,4.65877241138,0,0,
2189,2189,1.0945000,4547,1095,9999.88672,19142.4883,2.13239225539,3.60090226434,0,0,
2190,2190,1.0950000,4547,1095,9999.64551,19137.0801,2.4679525349,-0.503720014295,0,0,
2191,2191,1.0955000,4548,1096,10000.2471,19134.0742,4.05530040981,-3.59628014609,0,0,
2192,2192,1.0960000,4548,1096,10000.7275,19136.959,4.11166430006,-1.2006994265,0,0,
2193,2193,1.0965000,4549,1097,10004.6943,19135.998,9.27363324887,-3.59406148231,0,0,
2194,2194,1.0970000,4549,1097,10000.3672,19136.4785,5.36979100403,-4.19161892596,0,0,
2195,2195,1.0975000,4550,1098,10000.2471,19137.8008,5.82534717836,-3.40699732275,0,0,
2196,2196,1.0980000,4550,1098,10000.4873,19137.4395,6.95424418802,-4.38198596558,0,0,
2197,2197,1.0985000,4551,1099,10000.4873,19135.1562,6.93316835919,-6.64015375139,0,0,
2198,2198,1.0990000,4551,1099,9998.08301,19139.6035,5.2093385982,-0.833524359807,0,0,
2199,2199,1.0995000,4552,1100,10001.4492,19142.0078,8.45423436466,1.7436676395,0,0,
2200,2200,1.1000000,4552,1100,10001.9297,19142.4883,9.17688892295,2.83977405292,0,0,
2201,2201,1.1005000,4553,1101,9997.24219,19140.9258,3.87268033907,2.24620829483,0,0,
2202,2202,1.1010000,4553,1101,9998.2041,19139.8438,5.93642430716,1.20531866707,0,0,
2203,2203,1.1015000,4554,1102,9998.44434,19146.8164,6.1815075978,6.79240513377,0,0,
2204,2204,1.1020000,4554,1102,9997.12207,19151.3848,5.13427878983,8.17273828837,0,0,
2205,2205,1.1025000,4555,1103,9994.47754,19161.2402,3.23079046253,12.7847513908,0,0,
2206,2206,1.1030000,4555,1103,9996.52051,19156.0723,4.49711708906,4.12522280807,0,0,
2207,2207,1.1035000,4556,1104,9999.52637,19140.6855,7.02820458471,-14.1969247931,0,0,
2208,2208,1.1040000,4556,1104,10001.9297,19132.6328,9.90871715403,-19.5715272905,0,0,
2209,2209,1.1045000,4557,1105,10004.4541,19135.6367,10.3016341595,-16.1881735882,0,0,
2210,2210,1.1050000,4557,1105,10004.0938,19135.0371,8.0747520564,-15.0470671584,0,0,
2211,2211,1.1055000,4558,1106,10002.29,19137.4395,4.22562894185,-10.9173001139,0,0,
2212,2212,1.1060000,4558,1106,10001.6895,19140.4453,2.90979694297,-6.73136923565,0,0,
2213,2213,1.1065000,4559,1107,10000.2471,19138.8828,1.10528702759,-8.64449824196,0,0,
2214,2214,1.1070000,4559,1107,9999.16504,19142.9707,-0.107674810741,-4.18840203944,0,0,
2215,2215,1.1075000,4560,1108,10001.8096,19142.8496,0.869162245977,-5.01352478797,0,0,
2216,2216,1.1080000,4560,1108,10002.5312,19142.248,-0.347323040377,-4.88753361735,0,0,
2217,2217,1.1085000,4561,1109,10003.0117,19143.4512,-0.199254784494,-3.2851784279,0,0,
2218,2218,1.1090000,4561,1109,10000.6074,19146.334,-1.62805004002,-0.838463808662,0,0,
2219,2219,1.1095000,4562,1110,10003.252,19143.9316,0.147832155359,-3.82306983461,0,0,
2220,2220,1.1100000,4562,1110,10002.4111,19146.6953,-1.00825762264,-1.94321397542,0,0,
2221,2221,1.1105000,4563,1111,10005.0557,19140.5645,0.298943241936,-7.33343317389,0,0,
2222,2222,1.1110000,4563,1111,10005.0557,19137.4395,-1.04092248982,-9.22266730513,0,0,
2223,2223,1.1115000,4564,1112,10006.1377,19138.041,-1.62577125579,-7.34371654937,0,0,
2224,2224,1.1120000,4564,1112,10005.416,19137.8008,-3.8725975569,-6.13696232418,0,0,
2225,2225,1.1125000,4565,1113,10004.2139,19137.2012,-4.02208280926,-6.53176542021,0,0,
2226,2226,1.1130000,4565,1113,10005.6562,19136.5996,-2.59288599687,-7.22299876854,0,0,
2227,2227,1.1135000,4566,1114,10007.7002,19139.3633,-1.44820259561,-5.24157836616,0,0,
2228,2228,1.1140000,4566,1114,10006.1377,19137.3203,-2.83164747933,-7.2817988472,0,0,
2229,2229,1.1145000,4567,1115,10006.7383,19136.959,-3.55165920121,-6.22042510502,0,0,
2230,2230,1.1150000,4567,1115,10007.9404,19137.3203,-3.30835701492,-1.69295423166,0,0,
2231,2231,1.1155000,4568,1116,10009.2627,19135.5176,-2.74369477789,-1.35274521753,0,0,
2232,2232,1.1160000,4568,1116,10009.1416,19139.3633,-4.40915934601,2.77308275442,0,0,
2233,2233,1.1165000,4569,1117,10003.9736,19139.123,-8.59270689813,2.58150878974,0,0,
2234,2234,1.1170000,4569,1117,10006.2568,19137.2012,-5.55128400569,1.058542764,0,0,
2235,2235,1.1175000,4570,1118,10006.4971,19140.3262,-5.26250457031,4.3414949985,0,0,
2236,2236,1.1180000,4570,1118,10009.3828,19135.5176,-2.56022013379,0.732319066271,0,0,
2237,2237,1.1185000,4571,1119,10010.4639,19138.5215,-2.39593131634,4.61760199992,0,0,
2238,2238,1.1190000,4571,1119,10005.8965,19137.2012,-6.2425902646,4.90870289054,0,0,
2239,2239,1.1195000,4572,1120,10006.6182,19136.1191,-5.98675973545,5.40967110257,0,0,
2240,2240,1.1200000,4572,1120,10009.1416,19136.4785,-3.39746536441,7.87483802113,0,0,
2241,2241,1.1205000,4573,1121,10005.2959,19135.3965,-6.88727310828,9.2654627937,0,0,
2242,2242,1.1210000,4573,1121,10007.5791,19135.998,-4.19811506448,10.9616332422,0,0,
2243,2243,1.1215000,4574,1122,10010.4639,19134.916,-2.03615093899,9.59905209355,0,0,
2244,2244,1.1220000,4574,1122,10011.667,19133.2324,-1.3586416297,7.60478978683,0,0,
2245,2245,1.1225000,4575,1123,10011.5459,19133.1133,-1.6615786174,5.98880800022,0,0,
2246,2246,1.1230000,4575,1123,10010.3447,19131.6699,-4.34559164055,6.19773563707,0,0,
2247,2247,1.1235000,4576,1124,10012.1475,19137.9199,-3.59347991259,11.9217514326,0,0,
2248,2248,1.1240000,4576,1124,10009.1416,19138.2812,-5.60180345264,13.0544091502,0,0,
2249,2249,1.1245000,4577,1125,10011.1855,19132.873,-4.5715243218,6.1389289297,0,0,
2250,2250,1.1250000,4577,1125,10006.8584,19130.4688,-8.36326057745,4.4097195139,0,0,
2251,2251,1.1255000,4578,1126,10004.5742,19134.4355,-9.96947452738,8.09011597255,0,0,
2252,2252,1.1260000,4578,1126,10003.9736,19141.4082,-9.19453287601,13.4446900856,0,0,
2253,2253,1.1265000,4579,1127,10002.6514,19143.8105,-8.82334244374,13.2537689928,0,0,
2254,2254,1.1270000,4579,1127,10004.6943,19139.9648,-5.69116281793,7.94348857262,0,0,
2255,2255,1.1275000,4580,1128,10004.334,19134.5566,-6.40118476855,2.11783208408,0,0,
2256,2256,1.1280000,4580,1128,10009.2627,19136.8398,-2.55973874155,4.55774294983,0,0,
2257,2257,1.1285000,4581,1129,10005.6562,19142.7285,-5.14384847037,9.01721095954,0,0,
2258,2258,1.1290000,4581,1129,10003.1318,19151.9844,-5.08149078845,14.6517247829,0,0,
2259,2259,1.1295000,4582,1130,10004.4541,19150.543,-3.50718214566,10.55247912,0,0,
2260,2260,1.1300000,4582,1130,10003.9736,19151.7441,-2.76947145155,8.311846337,0,0,
2261,2261,1.1305000,4583,1131,10006.7383,19157.6348,-0.440711142895,11.6923579235,0,0,
2262,2262,1.1310000,4583,1131,10006.8584,19158.7168,-0.339587609871,9.61125997746,0,0,
2263,2263,1.1315000,4584,1132,10011.5459,19148.3789,3.05356394239,-2.02191249247,0,0,
2264,2264,1.1320000,4584,1132,10009.3828,19136.5996,0.341180512137,-12.3099265084,0,0,
2265,2265,1.1325000,4585,1133,10009.7432,19136.4785,1.95638026666,-11.9704205014,0,0,
2266,2266,1.1330000,4585,1133,10009.3828,19136.5996,1.80257260526,-11.7903701514,0,0,
2267,2267,1.1335000,4586,1134,10009.5029,19137.0801,1.6315648451,-12.0529973343,0,0,
2268,2268,1.1340000,4586,1134,10011.5459,19138.041,4.19171139341,-10.8643382212,0,0,
2269,2269,1.1345000,4587,1135,10007.9404,19135.877,0.276121673883,-11.653007173,0,0,
2270,2270,1.1350000,4587,1135,10005.7764,19149.9414,-1.46516246548,3.12956183579,0,0,
2271,2271,1.1355000,4588,1136,10008.3008,19151.5039,1.22848405569,3.82924295484,0,0,
2272,2272,1.1360000,4588,1136,10004.5742,19151.623,-2.08385679165,1.48894614258,0,0,
2273,2273,1.1365000,4589,1137,10004.6943,19149.2207,0.275371824092,-2.07523867104,0,0,
2274,2274,1.1370000,4589,1137,10009.623,19145.1328,5.14695737381,-6.11650111737,0,0,
2275,2275,1.1375000,4590,1138,10010.1035,19140.4453,5.36105439165,-10.3479297665,0,0,
2276,2276,1.1380000,4590,1138,10005.2959,19137.4395,1.05704220973,-10.8525792677,0,0,
2277,2277,1.1385000,4591,1139,10005.1748,19140.3262,1.3063099927,-7.31622371907,0,0,
2278,2278,1.1390000,4591,1139,10002.1709,19140.6855,0.647955537671,-5.19441078735,0,0,
2279,2279,1.1395000,4592,1140,10004.5742,19144.291,2.90828681525,-0.802275829056,0,0,
2280,2280,1.1400000,4592,1140,10006.4971,19148.8594,4.76869649787,3.95478375389,0,0,
2281,2281,1.1405000,4593,1141,9999.88672,19150.543,0.0730534564706,6.05578582076,0,0,
2282,2282,1.1410000,4593,1141,10006.7383,19157.3945,6.59579950837,10.8933263627,0,0,
2283,2283,1.1415000,4594,1142,10000.4873,19158.2363,0.730909776888,8.93122696958,0,0,
2284,2284,1.1420000,4594,1142,10003.0117,19154.0293,3.67369218796,2.86907890486,0,0,
2285,2285,1.1425000,4595,1143,10004.9346,19148.9785,5.97793292272,-4.05237486046,0,0,
2286,2286,1.1430000,4595,1143,10003.8535,19141.0469,4.31321833266,-9.64676698836,0,0,
2287,2287,1.1435000,4596,1144,10003.6123,19139.123,3.50644401905,-10.923301772,0,0,
2288,2288,1.1440000,4596,1144,10004.9346,19141.8887,5.89068309988,-5.89427391244,0,0,
2289,2289,1.1445000,4597,1145,10005.7764,19140.6855,5.34907205316,-6.39714321935,0,0,
2290,2290,1.1450000,4597,1145,10007.9404,19133.5938,7.33856052924,-10.7704158324,0,0,
2291,2291,1.1455000,4598,1146,10006.1377,19136.5996,5.03414777368,-7.02916970152,0,0,
2292,2292,1.1460000,4598,1146,10003.3721,19139.7246,2.48752073482,-4.21648183939,0,0,
2293,2293,1.1465000,4599,1147,10000.9678,19144.6523,0.956668482568,-0.129665305432,0,0,
2294,2294,1.1470000,4599,1147,10000.3672,19140.8066,0.595702756755,-2.78125898902,0,0,
2295,2295,1.1475000,4600,1148,10002.8916,19142.127,2.1105131132,-0.554732949927,0,0,
2296,2296,1.1480000,4600,1148,10003.0117,19137.4395,0.515562847867,-4.08180875354,0,0,
2297,2297,1.1485000,4601,1149,10005.1748,19136.5996,3.19668043674,-4.56460630167,0,0,
2298,2298,1.1490000,4601,1149,10007.2188,19138.2812,5.93853175744,-3.73048895786,0,0,
2299,2299,1.1495000,4602,1150,10004.5742,19138.7637,2.26443255009,-1.90811066523,0,0,
2300,2300,1.1500000,4602,1150,10005.0557,19137.3203,2.73106002814,-2.99617920126,0,0,
2301,2301,1.1505000,4603,1151,10003.252,19136.7188,-0.0995960869439,-2.55448994771,0,0,
2302,2302,1.1510000,4603,1151,10004.0938,19138.8828,0.432717568929,0.439066939116,0,0,
2303,2303,1.1515000,4604,1152,10006.4971,19140.5645,1.02082114571,4.00355577702,0,0,
2304,2304,1.1520000,4604,1152,10006.0166,19140.4453,0.344827942668,5.84637441481,0,0,
2305,2305,1.1525000,4605,1153,10003.9736,19142.0078,-0.514923332826,5.93690530436,0,0,
2306,2306,1.1530000,4605,1153,10002.29,19138.8828,-1.49555527906,1.74475400899,0,0,
2307,2307,1.1535000,4606,1154,10003.0117,19140.9258,-0.757221359462,1.77754148299,0,0,
2308,2308,1.1540000,4606,1154,9999.28613,19141.7676,-3.14857211463,1.40242839713,0,0,
2309,2309,1.1545000,4607,1155,10002.6514,19140.8066,0.524619087763,0.632283894195,0,0,
2310,2310,1.1550000,4607,1155,10005.416,19137.8008,2.90137240416,-2.58160998393,0,0,
2311,2311,1.1555000,4608,1156,10005.7764,19137.8008,2.22179385139,-1.4121832309,0,0,
2312,2312,1.1560000,4608,1156,10006.0166,19132.6328,2.16723934887,-5.6159317067,0,0,
2313,2313,1.1565000,4609,1157,10008.1807,19132.9922,4.42337093079,-3.62856908058,0,0,
2314,2314,1.1570000,4609,1157,10005.1748,19130.709,0.405716343647,-3.60402654335,0,0,
2315,2315,1.1575000,4610,1158,10004.6943,19133.9551,-0.157696634602,0.636222358859,0,0,
2316,2316,1.1580000,4610,1158,10003.8535,19134.6758,-0.191400082427,2.86608411202,0,0,
2317,2317,1.1585000,4611,1159,10003.6123,19139.002,-0.616145363108,5.79046800107,0,0,
2318,2318,1.1590000,4611,1159,9997.72266,19136.2383,-3.91527811164,3.71548339332,0,0,
2319,2319,1.1595000,4612,1160,10001.5693,19132.5117,-0.851475232939,0.687430397743,0,0,
2320,2320,1.1600000,4612,1160,10004.4541,19129.5059,1.24304497271,-0.939702295442,0,0,
2321,2321,1.1605000,4613,1161,10003.8535,19131.3105,2.03461687215,2.72184273852,0,0,
2322,2322,1.1610000,4613,1161,10001.9297,19134.1953,-1.16664384474,4.99005431492,0,0,
2323,2323,1.1615000,4614,1162,10001.8096,19135.998,-0.530840004119,6.27565678205,0,0,
2324,2324,1.1620000,4614,1162,10000.6074,19129.8672,-1.92589312298,1.51458673543,0,0,
2325,2325,1.1625000,4615,1163,10000.9678,19128.4238,-1.33760963126,0.609823559487,0,0,
2326,2326,1.1630000,4615,1163,10003.0117,19129.0254,0.156469599865,3.82519216221,0,0,
2327,2327,1.1635000,4616,1164,10002.1709,19130.9492,-1.2292050178,5.03020430966,0,0,
2328,2328,1.1640000,4616,1164,10003.252,19132.1504,0.365214231261,6.2271725821,0,0,
2329,2329,1.1645000,4617,1165,10003.252,19134.5566,-0.777305378817,7.54768157744,0,0,
2330,2330,1.1650000,4617,1165,10000.7275,19133.1133,-2.8284468022,6.84892498321,0,0,
2331,2331,1.1655000,4618,1166,10003.4932,19134.7949,-0.0131342525429,6.12557351223,0,0,
2332,2332,1.1660000,4618,1166,10001.8096,19131.3105,-1.08378080018,0.870628675319,0,0,
2333,2333,1.1665000,4619,1167,10002.4111,19127.4629,0.0226580921535,-3.76077085703,0,0,
2334,2334,1.1670000,4619,1167,10002.0498,19127.9434,-0.664840980605,-1.61192369311,0,0,
2335,2335,1.1675000,4620,1168,10002.1709,19126.623,-1.94230690984,-2.06725458407,0,0,
2336,2336,1.1680000,4620,1168,10001.9297,19125.0605,-3.54300023711,-2.01842637136,0,0,
2337,2337,1.1685000,4621,1169,10003.252,19126.9824,-2.03107373637,-0.458517799813,0,0,
2338,2338,1.1690000,4621,1169,10006.8584,19124.0977,1.63423310619,-4.23652508957,0,0,
2339,2339,1.1695000,4622,1170,10003.8535,19124.2168,-1.62424374119,-2.98705316193,0,0,
2340,2340,1.1700000,4622,1170,10001.5693,19122.6543,-3.42691954664,-3.82781037801,0,0,
2341,2341,1.1705000,4623,1171,10001.8096,19121.6934,-3.47202090213,-3.6604585753,0,0,
2342,2342,1.1710000,4623,1171,10002.5312,19118.4473,-2.9746411905,-5.49891301479,0,0,
2343,2343,1.1715000,4624,1172,10000.0068,19122.1738,-6.27284400622,0.0330579297448,0,0,
2344,2344,1.1720000,4624,1172,10000.7275,19122.1738,-4.77187385855,2.14938082777,0,0,
2345,2345,1.1725000,4625,1173,9999.7666,19118.9297,-3.81553929995,-1.19913683296,0,0,
2346,2346,1.1730000,4625,1173,9998.80469,19120.252,-3.49823709509,0.264670777165,0,0,
2347,2347,1.1735000,4626,1174,9999.52637,19116.6465,-2.55879471245,-3.97718484876,0,0,
2348,2348,1.1740000,4626,1174,10001.9297,19118.5684,0.801699023307,-2.19378707804,0,0,
2349,2349,1.1745000,4627,1175,9995.31934,19120.9727,-5.07390249706,0.762863851002,0,0,
2350,2350,1.1750000,4627,1175,9997.3623,19121.0918,-2.67957289334,0.862657604819,0,0,
2351,2351,1.1755000,4628,1176,9998.56445,19119.6504,-1.43360909341,0.174849317218,0,0,
2352,2352,1.1760000,4628,1176,9994.11621,19119.4102,-4.39908586021,0.608009094751,0,0,
2353,2353,1.1765000,4629,1177,9995.91992,19116.5254,-1.30325755153,-1.48648632768,0,0,
2354,2354,1.1770000,4629,1177,9995.43848,19113.4004,-0.985114072088,-2.54978994002,0,0,
2355,2355,1.1775000,4630,1178,9994.71777,19112.3184,-0.753591485815,-2.8941212295,0,0,
2356,2356,1.1780000,4630,1178,9996.28027,19112.4395,1.96400850979,-1.06872010667,0,0,
2357,2357,1.1785000,4631,1179,9998.68457,19110.0332,4.04016305339,-3.59652015364,0,0,
2358,2358,1.1790000,4631,1179,9997.00195,19107.8711,4.57217788269,-3.0941458821,0,0,
2359,2359,1.1795000,4632,1180,9998.32324,19109.0723,4.01497425328,-0.175023471476,0,0,
2360,2360,1.1800000,4632,1180,9993.51562,19109.4336,-0.940550556421,1.56263282942,0,0,
2361,2361,1.1805000,4633,1181,9995.55957,19108.7129,2.77417593888,2.10962841394,0,0,
2362,2362,1.1810000,4633,1181,9997.60254,19107.8711,3.79403961204,1.03340698199,0,0,
2363,2363,1.1815000,4634,1182,9998.80469,19108.4707,4.98374769676,1.82332383873,0,0,
2364,2364,1.1820000,4634,1182,9994.83789,19108.9512,1.05912685196,4.19796756665,0,0,
2365,2365,1.1825000,4635,1183,9997.00195,19106.4277,2.92468737346,2.1685721503,0,0,
2366,2366,1.1830000,4635,1183,9996.52051,19106.0684,1.70141557101,3.72321520083,0,0,
2367,2367,1.1835000,4636,1184,9994.95801,19105.2266,0.110710479897,2.3943329232,0,0,
2368,2368,1.1840000,4636,1184,9993.75684,19101.6191,-0.259957785778,-0.115321316552,0,0,
2369,2369,1.1845000,4637,1185,9993.51562,19101.7402,-0.798393494643,0.283938194944,0,0,
2370,2370,1.1850000,4637,1185,9993.75684,19101.7402,0.327526552684,2.32717578877,0,0,
2371,2371,1.1855000,4638,1186,9993.27539,19105.8262,-0.074558917069,4.68693812001,0,0,
2372,2372,1.1860000,4638,1186,9990.03027,19104.7441,-1.65611795986,2.87580110877,0,0,
2373,2373,1.1865000,4639,1187,9992.19336,19102.582,1.20722983371,0.479719462099,0,0,
2374,2374,1.1870000,4639,1187,9993.87598,19101.7402,2.65663670023,0.734592881497,0,0,
2375,2375,1.1875000,4640,1188,9993.03516,19106.668,0.795453710353,5.25361678024,0,0,
2376,2376,1.1880000,4640,1188,9992.55371,19105.1055,-0.590195447891,4.03229613607,0,0,
2377,2377,1.1885000,4641,1189,9988.46777,19107.5098,-3.65029196911,4.51243495632,0,0,
2378,2378,1.1890000,4641,1189,9991.35254,19109.0723,-0.308233786696,3.95689607666,0,0,
2379,2379,1.1895000,4642,1190,9990.03027,19109.7949,-0.549350744373,3.63526774242,0,0,
2380,2380,1.1900000,4642,1190,9989.79004,19109.9141,0.223809845672,2.60151244492,0,0,
2381,2381,1.1905000,4643,1191,9985.82324,19112.7988,-3.09110972603,4.00559918794,0,0,
2382,2382,1.1910000,4643,1191,9987.14551,19109.0723,-1.41248909626,-0.135249442477,0,0,
2383,2383,1.1915000,4644,1192,9984.98145,19104.625,-3.17731185547,-4.24910528509,0,0,
2384,2384,1.1920000,4644,1192,9985.94238,19107.3887,-1.3853768412,-0.597105842529,0,0,
2385,2385,1.1925000,4645,1193,9985.70215,19107.2695,0.231518299539,-1.42161199238,0,0,
2386,2386,1.1930000,4645,1193,9984.74121,19105.4668,0.560341885681,-3.88179144354,0,0,
2387,2387,1.1935000,4646,1194,9984.01953,19105.9473,0.169141390399,-4.36142659378,0,0,
2388,2388,1.1940000,4646,1194,9982.45703,19106.668,-0.118560886206,-4.92704948611,0,0,
2389,2389,1.1945000,4647,1195,9981.25488,19111.1152,0.418232352676,-1.57166666902,0,0,
2390,2390,1.1950000,4647,1195,9981.01465,19112.9199,0.255194488917,-1.00809429387,0,0,
2391,2391,1.1955000,4648,1196,9977.52832,19113.8809,-2.37814725357,-0.633566019724,0,0,
2392,2392,1.1960000,4648,1196,9977.40918,19110.0332,-0.341586963358,-4.45041053788,0,0,
2393,2393,1.1965000,4649,1197,9976.80762,19107.8711,0.190408910511,-5.95047752584,0,0,
2394,2394,1.1970000,4649,1197,9977.04785,19106.5488,1.40268308534,-5.76630171422,0,0,
2395,2395,1.1975000,4650,1198,9976.80762,19104.7441,2.13525888742,-7.23601104021,0,0,
2396,2396,1.1980000,4650,1198,9979.45215,19099.4551,5.17910611602,-10.4784557303,0,0,
2397,2397,1.1985000,4651,1199,9976.56738,19095.248,2.34388869989,-13.2090276185,0,0,
2398,2398,1.1990000,4651,1199,9976.92773,19091.8848,5.08919016991,-12.7263016578,0,0,
2399,2399,1.1995000,4652,1200,9977.52832,19095.1289,4.26342313765,-7.53392027975,0,0,
2400,2400,1.2000000,4652,1200,9981.49512,19091.5234,7.63772663632,-8.53896842472,0,0,
2401,2401,1.2005000,4653,1201,9978.49023,19093.0859,5.16557799349,-4.78343913451,0,0,
2402,2402,1.2010000,4653,1201,9977.64941,19093.6855,3.28160360125,-3.49788346868,0,0,
2403,2403,1.2015000,4654,1202,9979.45215,19096.4512,4.84500438631,-0.44914983629,0,0,
2404,2404,1.2020000,4654,1202,9979.21191,19100.6582,4.69670194832,4.71247750063,0,0,
2405,2405,1.2025000,4655,1203,9978.61035,19102.582,3.24015724574,6.31132012435,0,0,
2406,2406,1.2030000,4655,1203,9980.53418,19102.8223,4.01685685704,6.96763820194,0,0,
2407,2407,1.2035000,4656,1204,9979.45215,19094.4082,2.51765388592,-1.19225315127,0,0,
2408,2408,1.2040000,4656,1204,9978.97168,19094.7676,2.13679574956,0.487059368174,0,0,
2409,2409,1.2045000,4657,1205,9978.25,19090.8027,0.576498131599,-2.70027865772,0,0,
2410,2410,1.2050000,4657,1205,9979.69238,19095.0098,1.83932723429,2.88594410771,0,0,
2411,2411,1.2055000,4658,1206,9980.53418,19096.5723,1.82251184125,2.55066592663,0,0,
2412,2412,1.2060000,4658,1206,9979.93262,19096.8105,1.76819136008,2.49722322876,0,0,
2413,2413,1.2065000,4659,1207,9976.6875,19096.9316,-1.60176882427,2.52775103281,0,0,
2414,2414,1.2070000,4659,1207,9978.00977,19091.4023,-0.942956765739,-1.31650259978,0,0,
2415,2415,1.2075000,4660,1208,9978.00977,19080.9453,-1.86153757411,-9.48675107044,0,0,
2416,2416,1.2080000,4660,1208,9974.52441,19078.6621,-5.62531496684,-7.74689601125,0,0,
2417,2417,1.2085000,4661,1209,9978.37012,19084.4316,-1.35583238192,-1.56697150213,0,0,
2418,2418,1.2090000,4661,1209,9978.00977,19094.2871,-2.40797528262,6.84004390006,0,0,
2419,2419,1.2095000,4662,1210,9978.00977,19100.1777,-1.93317675987,11.2210306507,0,0,
2420,2420,1.2100000,4662,1210,9975.00488,19103.0625,-4.11356770927,12.12946939,0,0,
2421,2421,1.2105000,4663,1211,9973.32129,19101.0195,-4.91585398958,8.33835094794,0,0,
2422,2422,1.2110000,4663,1211,9974.52441,19104.625,-4.0568606136,10.9589049017,0,0,
2423,2423,1.2115000,4664,1212,9978.73145,19103.7832,-0.627223798388,9.29829600569,0,0,
2424,2424,1.2120000,4664,1212,9977.76953,19106.7891,-2.10519938349,10.6038448165,0,0,
2425,2425,1.2125000,4665,1213,9977.04785,19110.2754,-2.04656747752,11.1992197856,0,0,
2426,2426,1.2130000,4665,1213,9978.12988,19113.2793,-0.768617902973,11.0034659261,0,0,
2427,2427,1.2135000,4666,1214,9977.76953,19107.6309,-1.66776838887,2.96933392765,0,0,
2428,2428,1.2140000,4666,1214,9980.05371,19106.1875,0.39713220276,-0.555681066946,0,0,
2429,2429,1.2145000,4667,1215,9981.73535,19107.75,1.80240119868,-0.993790141119,0,0,
2430,2430,1.2150000,4667,1215,9978.00977,19103.0625,-2.78387948767,-5.9393985282,0,0,
2431,2431,1.2155000,4668,1216,9979.45215,19099.0957,-1.71070506576,-8.58985172075,0,0,
2432,2432,1.2160000,4668,1216,9979.8125,19100.7793,-1.2161994217,-5.37665873464,0,0,
2433,2433,1.2165000,4669,1217,9979.93262,19108.2305,-1.57281630991,1.8149454707,0,0,
2434,2434,1.2170000,4669,1217,9984.01953,19109.7949,1.22610369158,3.1804773507,0,0,
2435,2435,1.2175000,4670,1218,9980.05371,19108.5918,-2.90757886513,1.00971177673,0,0,
2436,2436,1.2180000,4670,1218,9980.6543,19101.1387,-2.91691441146,-4.73163618804,0,0,
2437,2437,1.2185000,4671,1219,9983.05762,19097.6543,-1.16186336696,-7.19165653545,0,0,
2438,2438,1.2190000,4671,1219,9985.3418,19097.1719,1.52093470097,-5.37045490836,0,0,
2439,2439,1.2195000,4672,1220,9986.30371,19094.5273,-0.0199131657888,-7.24923060179,0,0,
2440,2440,1.2200000,4672,1220,9986.30371,19095.6094,-1.53425710037,-4.3477545157,0,0,
2441,2441,1.2205000,4673,1221,9984.98145,19097.293,-2.23819505646,-2.12252907117,0,0,
2442,2442,1.2210000,4673,1221,9983.89941,19099.3359,-4.19791621923,-0.698594921282,0,0,
2443,2443,1.2215000,4674,1222,9986.78418,19099.2168,-2.16755210289,-1.49676460226,0,0,
2444,2444,1.2220000,4674,1222,9983.17871,19097.5332,-5.15002487405,-2.39576134045,0,0,
2445,2445,1.2225000,4675,1223,9982.57715,19099.8164,-5.7467081212,-0.000373441467463,0,0,
2446,2446,1.2230000,4675,1223,9984.62109,19098.2539,-4.4230430205,-0.216776751463,0,0,
2447,2447,1.2235000,4676,1224,9984.62109,19099.9375,-4.11986786535,2.39761347403,0,0,
2448,2448,1.2240000,4676,1224,9985.94238,19101.7402,-2.50649181392,4.01588744479,0,0,
2449,2449,1.2245000,4677,1225,9985.58301,19099.5762,-3.26307189225,1.91036752485,0,0,
2450,2450,1.2250000,4677,1225,9984.37988,19103.0625,-4.18790132854,4.57283799418,0,0,
2451,2451,1.2255000,4678,1226,9984.50098,19100.2988,-4.0499477578,-0.0960281873653,0,0,
2452,2452,1.2260000,4678,1226,9985.82324,19103.6621,-1.68139729005,2.34701333272,0,0,
2453,2453,1.2265000,4679,1227,9986.90527,19102.582,-0.370012309509,0.859086648869,0,0,
2454,2454,1.2270000,4679,1227,9988.10645,19102.2207,-0.176584209825,1.71543595752,0,0,
2455,2455,1.2275000,4680,1228,9986.42383,19102.8223,-2.3793441806,3.01983782793,0,0,
2456,2456,1.2280000,4680,1228,9989.66895,19104.0234,0.302193814728,4.31963915613,0,0,
2457,2457,1.2285000,4681,1229,9990.75098,19105.3457,0.58732265392,2.50697356691,0,0,
2458,2458,1.2290000,4681,1229,9991.71289,19108.4707,0.571876206685,1.80251504476,0,0,
2459,2459,1.2295000,4682,1230,9988.70801,19108.1113,-1.85470507681,-0.259893347392,0,0,
2460,2460,1.2300000,4682,1230,9989.30859,19110.1543,-0.441315573043,0.489389453702,0,0,
2461,2461,1.2305000,4683,1231,9987.86621,19116.0449,-1.2404959438,4.7000809894,0,0,
2462,2462,1.2310000,4683,1231,9987.98633,19112.3184,-1.7310647181,0.299614409397,0,0,
2463,2463,1.2315000,4684,1232,9991.35254,19109.3125,0.297220535764,-1.93676807887,0,0,
2464,2464,1.2320000,4684,1232,9990.27051,19106.0684,-0.796066466501,-4.75346592205,0,0,
2465,2465,1.2325000,4685,1233,9990.87109,19111.7168,0.546002952404,-0.340387408858,0,0,
2466,2466,1.2330000,4685,1233,9984.26074,19118.9297,-4.60945591295,4.5160779315,0,0,
2467,2467,1.2335000,4686,1234,9985.58301,19122.8965,-2.55799872416,6.60432159935,0,0,
2468,2468,1.2340000,4686,1234,9986.78418,19126.8613,-0.785874642052,7.14940427199,0,0,
2469,2469,1.2345000,4687,1235,9989.06836,19117.127,1.92870188845,-4.11371515791,0,0,
2470,2470,1.2350000,4687,1235,9990.15039,19109.9141,3.05495864143,-9.69048131625,0,0,
2471,2471,1.2355000,4688,1236,9993.51562,19098.6152,5.432444866,-16.8762783528,0,0,
2472,2472,1.2360000,4688,1236,9993.75684,19093.8066,5.37810813995,-17.4917634069,0,0,
2473,2473,1.2365000,4689,1237,9990.63086,19096.5723,2.19407753426,-12.5464410973,0,0,
2474,2474,1.2370000,4689,1237,9990.27051,19100.418,1.16025843486,-6.11994851811,0,0,
2475,2475,1.2375000,4690,1238,9989.30859,19102.3418,1.35672977609,-2.6128585736,0,0,
2476,2476,1.2380000,4690,1238,9992.43457,19107.0293,3.80227051436,4.44331630785,0,0,
2477,2477,1.2385000,4691,1239,9990.51074,19105.1055,1.63612307725,3.22591658423,0,0,
2478,2478,1.2390000,4691,1239,9991.23145,19104.2637,3.1885251635,3.61306014814,0,0,
2479,2479,1.2395000,4692,1240,9989.42871,19103.6621,0.59752403034,3.09992547525,0,0,
2480,2480,1.2400000,4692,1240,9989.42871,19109.9141,0.622956444625,8.58573487095,0,0,
2481,2481,1.2405000,4693,1241,9987.02441,19110.3945,0.25925116216,7.56898736337,0,0,
2482,2482,1.2410000,4693,1241,9987.14551,19109.6738,0.773126875574,5.03990154849,0,0,
2483,2483,1.2415000,4694,1242,9985.70215,19105.5879,-0.365631637111,0.395342701512,0,0,
2484,2484,1.2420000,4694,1242,9985.94238,19106.3066,1.71773172748,1.5675285143,0,0,
2485,2485,1.2425000,4695,1243,9990.99121,19105.9473,6.27186915716,0.86883224852,0,0,
2486,2486,1.2430000,4695,1243,9988.46777,19104.3848,3.02055171772,0.721679537458,0,0,
2487,2487,1.2435000,4696,1244,9989.18848,19101.7402,4.01982567488,-0.672343120845,0,0,
2488,2488,1.2440000,4696,1244,9985.82324,19101.8613,1.49791085494,0.0179878458836,0,0,
2489,2489,1.2445000,4697,1245,9990.03027,19100.2988,5.29883006143,-0.218150112682,0,0,
2490,2490,1.2450000,4697,1245,9986.54395,19105.5879,2.50107062903,4.0786022791,0,0,
2491,2491,1.2455000,4698,1246,9988.58691,19106.7891,4.28737466744,3.86306955566,0,0,
2492,2492,1.2460000,4698,1246,9989.06836,19101.3789,5.20004224021,-1.70310930457,0,0,
2493,2493,1.2465000,4699,1247,9991.83301,19099.8164,7.40899463762,-2.15817884912,0,0,
2494,2494,1.2470000,4699,1247,9988.34668,19098.6152,3.25223811241,-1.09824786411,0,0,
2495,2495,1.2475000,4700,1248,9988.10645,19095.8496,2.93324936512,-1.71405657199,0,0,
2496,2496,1.2480000,4700,1248,9990.15039,19099.0957,4.01833602787,2.46465184096,0,0,
2497,2497,1.2485000,4701,1249,9991.1123,19104.5059,4.21442344665,5.24800044866,0,0,
2498,2498,1.2490000,4701,1249,9995.7998,19105.8262,7.20859257441,3.30312179262,0,0,
2499,2499,1.2495000,4702,1250,9995.19824,19113.4004,6.49132607097,8.37715005267,0,0,
2500,2500,1.2500000,4702,1250,9989.90918,19116.4043,1.73866604965,8.59552613296,0,0,
2501,2501,1.2505000,4703,1251,9988.34668,19117.0059,0.961390208388,6.44476122303,0,0,
2502,2502,1.2510000,4703,1251,9989.79004,19117.7266,1.55430358578,6.30100043516,0,0,
2503,2503,1.2515000,4704,1252,9988.22656,19116.8848,-1.16777588377,5.24508230013,0,0,
2504,2504,1.2520000,4704,1252,9993.15527,19113.0391,3.27862488248,1.19541843591,0,0,
2505,2505,1.2525000,4705,1253,9992.91504,19111.8379,2.97945614585,-1.91116563072,0,0,
2506,2506,1.2530000,4705,1253,9994.47754,19112.4395,4.92912085779,-3.17258281767,0,0,
2507,2507,1.2535000,4706,1254,9990.27051,19112.7988,0.148984317826,-3.09743661535,0,0,
2508,2508,1.2540000,4706,1254,9988.82812,19113.2793,-1.3949991197,-3.68128186225,0,0,
2509,2509,1.2545000,4707,1255,9991.95312,19114.3613,1.12893386345,-1.75843668108,0,0,
2510,2510,1.2550000,4707,1255,9990.03027,19114.9629,-0.857493903407,0.0997672630773,0,0,
2511,2511,1.2555000,4708,1256,9985.46191,19116.4043,-5.27072627373,3.22740727014,0,0,
2512,2512,1.2560000,4708,1256,9985.22168,19117.7266,-4.26516819901,4.13817978527,0,0,
2513,2513,1.2565000,4709,1257,9986.30371,19116.7656,-2.0781195351,0.817211796393,0,0,
2514,2514,1.2570000,4709,1257,9986.30371,19116.1641,-2.19798190345,-0.797961098946,0,0,
2515,2515,1.2575000,4710,1258,9989.54883,19114.8418,1.61040813596,-2.63727084352,0,0,
2516,2516,1.2580000,4710,1258,9989.90918,19114.1211,0.788472200701,-2.5813826622,0,0,
2517,2517,1.2585000,4711,1259,9989.30859,19116.5254,0.0962527773263,-0.159617266463,0,0,
2518,2518,1.2590000,4711,1259,9987.98633,19117.3652,-0.608979743824,0.692975988047,0,0,
2519,2519,1.2595000,4712,1260,9984.98145,19121.9336,-3.57403194562,3.46675248409,0,0,
2520,2520,1.2600000,4712,1260,9983.7793,19123.498,-4.28073613626,2.31899519081,0,0,
2521,2521,1.2605000,4713,1261,9986.42383,19124.5781,-0.106711313162,1.31436980139,0,0,
2522,2522,1.2610000,4713,1261,9984.37988,19120.4922,-1.99810138809,-4.06141077874,0,0,
2523,2523,1.2615000,4714,1262,9984.01953,19124.0977,-2.17297493403,-1.49848249008,0,0,
2524,2524,1.2620000,4714,1262,9983.89941,19124.8184,-1.14101365649,-1.79451000953,0,0,
2525,2525,1.2625000,4715,1263,9981.49512,19120.0098,-3.76949744409,-6.96511482896,0,0,
2526,2526,1.2630000,4715,1263,9982.33691,19118.4473,-2.57642464255,-7.15130769461,0,0,
2527,2527,1.2635000,4716,1264,9984.01953,19117.127,-0.655644786175,-7.18301853114,0,0,
2528,2528,1.2640000,4716,1264,9986.42383,19117.4863,2.11205728558,-6.59057276654,0,0,
2529,2529,1.2645000,4717,1265,9983.29883,19118.3281,-1.67637342387,-4.94342736471,0,0,
2530,2530,1.2650000,4717,1265,9982.33691,19118.5684,-1.40332357869,-6.02559501176,0,0,
2531,2531,1.2655000,4718,1266,9983.41895,19116.5254,-0.788165487176,-8.23455438615,0,0,
2532,2532,1.2660000,4718,1266,9981.97656,19118.5684,-1.47547280187,-5.50602826997,0,0,
2533,2533,1.2665000,4719,1267,9987.02441,19118.3281,2.57609994214,-5.00887618685,0,0,
2534,2534,1.2670000,4719,1267,9985.82324,19119.0488,1.11104633075,-2.96445408713,0,0,
2535,2535,1.2675000,4720,1268,9982.81738,19119.5293,-1.76894822618,-1.41797723732,0,0,
2536,2536,1.2680000,4720,1268,9983.41895,19121.8145,-1.93524764954,0.120391142379,0,0,
2537,2537,1.2685000,4721,1269,9979.0918,19122.1738,-5.66138939298,-2.39080987353,0,0,
2538,2538,1.2690000,4721,1269,9982.93848,19124.5781,-2.6853981585,-2.68923927101,0,0,
2539,2539,1.2695000,4722,1270,9982.81738,19124.9395,-1.58457339965,-4.23440683784,0,0,
2540,2540,1.2700000,4722,1270,9983.17871,19124.3379,0.243525061312,-5.41976192182,0,0,
2541,2541,1.2705000,4723,1271,9982.57715,19127.4629,0.34872245991,-3.01834374119,0,0,
2542,2542,1.2710000,4723,1271,9983.7793,19131.4297,0.408901668997,0.955635234438,0,0,
2543,2543,1.2715000,4724,1272,9983.41895,19133.9551,-0.942159645077,3.62426892772,0,0,
2544,2544,1.2720000,4724,1272,9984.37988,19136.959,-0.945548670391,6.0821771677,0,0,
2545,2545,1.2725000,4725,1273,9986.06348,19138.1621,0.755792250496,4.53287325891,0,0,
2546,2546,1.2730000,4725,1273,9985.70215,19136.7188,0.773963979017,0.600268124026,0,0,
2547,2547,1.2735000,4726,1274,9985.70215,19144.7715,0.714039578205,6.11488662191,0,0,
2548,2548,1.2740000,4726,1274,9983.41895,19148.0176,-1.60617541034,5.91516215075,0,0,
2549,2549,1.2745000,4727,1275,9986.54395,19140.8066,0.187603611805,-1.41211530533,0,0,
2550,2550,1.2750000,4727,1275,9988.34668,19123.498,1.42456684898,-14.7767909179,0,0,
2551,2551,1.2755000,4728,1276,9986.30371,19110.2754,-0.858925420667,-21.2566588629,0,0,
2552,2552,1.2760000,4728,1276,9988.58691,19113.1582,0.8262844096,-14.1079521493,0,0,
2553,2553,1.2765000,4729,1277,9988.94824,19116.7656,0.541116124662,-8.69644584431,0,0,
2554,2554,1.2770000,4729,1277,9992.31348,19123.377,2.01940989621,-1.05628266194,0,0,
2555,2555,1.2775000,4730,1278,9988.70801,19128.1855,-2.03462338938,3.92916060546,0,0,
2556,2556,1.2780000,4730,1278,9988.58691,19130.1074,-3.23132008244,6.36055781694,0,0,
2557,2557,1.2785000,4731,1279,9985.46191,19129.3867,-5.8219939545,5.52049776548,0,0,
2558,2558,1.2790000,4731,1279,9989.30859,19132.5117,-1.73856585789,8.34260929808,0,0,
2559,2559,1.2795000,4732,1280,9991.47266,19125.1797,-0.368001559721,0.817753021274,0,0,
2560,2560,1.2800000,4732,1280,9992.31348,19121.9336,-0.532373526184,-2.03610763198,0,0,
2561,2561,1.2805000,4733,1281,9993.15527,19120.7324,-0.0826517968658,-2.13232094441,0,0,
2562,2562,1.2810000,4733,1281,9991.71289,19120.3711,-1.99717443641,-0.786359236503,0,0,
2563,2563,1.2815000,4734,1282,9990.27051,19125.0605,-3.84831437181,3.75907905227,0,0,
2564,2564,1.2820000,4734,1282,9989.18848,19127.7051,-4.2955112967,6.27370225187,0,0,
2565,2565,1.2825000,4735,1283,9987.14551,19127.3438,-6.29907531888,6.39993953642,0,0,
2566,2566,1.2830000,4735,1283,9991.83301,19124.9395,-2.42835357177,5.30350543573,0,0,
2567,2567,1.2835000,4736,1284,9990.39062,19123.1367,-4.17633749665,4.71602273653,0,0,
2568,2568,1.2840000,4736,1284,9990.63086,19122.0547,-3.77299112469,3.8763003439,0,0,
2569,2569,1.2845000,4737,1285,9991.59277,19119.0488,-3.09466211999,2.12789719909,0,0,
2570,2570,1.2850000,4737,1285,9993.51562,19119.6504,-0.842027037653,2.18679875125,0,0,
2571,2571,1.2855000,4738,1286,9995.07812,19126.623,-0.657808203571,8.10040200253,0,0,
2572,2572,1.2860000,4738,1286,9995.31934,19128.0645,-0.479236298486,8.48516107415,0,0,
2573,2573,1.2865000,4739,1287,9997.00195,19128.3047,-0.747811786854,8.12626811145,0,0,
2574,2574,1.2870000,4739,1287,9994.71777,19129.0254,-2.8168541862,8.57023982814,0,0,
2575,2575,1.2875000,4740,1288,9994.83789,19128.1855,-2.3533526897,7.60741933601,0,0,
2576,2576,1.2880000,4740,1288,9993.51562,19129.3867,-4.29588482498,7.11214135055,0,0,
2577,2577,1.2885000,4741,1289,9993.75684,19129.8672,-3.40546506493,4.58044389881,0,0,
2578,2578,1.2890000,4741,1289,9992.07324,19125.0605,-6.06126768703,-2.10809635435,0,0,
2579,2579,1.2895000,4742,1290,9991.59277,19126.2617,-4.94165707735,-2.02994769548,0,0,
2580,2580,1.2900000,4742,1290,9991.71289,19131.4297,-3.07296483225,2.02792959296,0,0,
2581,2581,1.2905000,4743,1291,9988.70801,19136.959,-4.27367004392,5.11736150527,0,0,
2582,2582,1.2910000,4743,1291,9991.1123,19138.041,-2.19505116124,4.80009805579,0,0,
2583,2583,1.2915000,4744,1292,9989.79004,19143.8105,-3.25274582353,8.95493513345,0,0,
2584,2584,1.2920000,4744,1292,9987.02441,19147.2969,-5.33118279062,10.1609932082,0,0,
2585,2585,1.2925000,4745,1293,9990.51074,19147.416,-1.00407818121,6.90969457935,0,0,
2586,2586,1.2930000,4745,1293,9990.87109,19140.3262,0.667301645514,-1.63622830307,0,0,
2587,2587,1.2935000,4746,1294,9992.31348,19137.9199,2.6406716319,-5.48566632482,0,0,
2588,2588,1.2940000,4746,1294,9992.31348,19128.9062,3.1661804909,-13.543611542,0,0,
2589,2589,1.2945000,4747,1295,9991.47266,19122.6543,1.49108940429,-14.7242052037,0,0,
2590,2590,1.2950000,4747,1295,9992.19336,19117.8477,2.39305046997,-12.0506817417,0,0,
2591,2591,1.2955000,4748,1296,9991.83301,19122.6543,2.83118249693,-2.05865152756,0,0,
2592,2592,1.2960000,4748,1296,9995.7998,19124.6992,6.03606363875,0.283662198186,0,0,
2593,2593,1.2965000,4749,1297,9994.83789,19126.623,4.89717854147,0.935071961977,0,0,
2594,2594,1.2970000,4749,1297,9995.43848,19130.709,4.20910989096,3.1754944641,0,0,
2595,2595,1.2975000,4750,1298,9996.88184,19131.5508,5.84358417588,2.7417568636,0,0,
2596,2596,1.2980000,4750,1298,9998.44434,19134.916,6.05270750449,5.42627608396,0,0,
2597,2597,1.2985000,4751,1299,9996.28027,19135.6367,4.27551870057,5.2697752703,0,0,
2598,2598,1.2990000,4751,1299,9996.40039,19137.8008,3.89895288458,5.88724468969,0,0,
2599,2599,1.2995000,4752,1300,9994.71777,19144.4121,1.96927890782,10.5114012078,0,0,
2600,2600,1.3000000,4752,1300,9998.56445,19152.7051,4.9811042476,14.5179740785,0,0,
2601,2601,1.3005000,4753,1301,10001.8096,19153.5469,7.36514364186,11.366648412,0,0,
2602,2602,1.3010000,4753,1301,9999.64551,19161.4805,4.8912088509,14.5594156184,0,0,
2603,2603,1.3015000,4754,1302,9998.08301,19161.4805,3.08874495436,8.91535145824,0,0,
2604,2604,1.3020000,4754,1302,9998.80469,19162.4434,3.96789170276,5.55254739629,0,0,
2605,2605,1.3025000,4755,1303,9997.00195,19160.6387,2.02517833833,1.29164743205,0,0,
2606,2606,1.3030000,4755,1303,10000.4873,19159.918,3.58101627224,-0.726415101663,0,0,
2607,2607,1.3035000,4756,1304,9997.24219,19164.9668,0.423611482302,1.90791812233,0,0,
2608,2608,1.3040000,4756,1304,9995.31934,19158.4746,-0.990525680331,-6.34721208555,0,0,
2609,2609,1.3045000,4757,1305,9998.08301,19153.3066,1.3551380435,-11.2717371298,0,0,
2610,2610,1.3050000,4757,1305,9997.60254,19140.4453,1.18128965233,-23.129568187,0,0,
2611,2611,1.3055000,4758,1306,9997.3623,19127.4629,0.236857311128,-32.9129744724,0,0,
2612,2612,1.3060000,4758,1306,9996.40039,19128.7852,0.0128932003192,-27.6309449465,0,0,
2613,2613,1.3065000,4759,1307,9996.88184,19130.2285,-0.457633580322,-22.2572284077,0,0,
2614,2614,1.3070000,4759,1307,9994.71777,19140.6855,-1.20534194768,-9.96951241798,0,0,
2615,2615,1.3075000,4760,1308,9996.6416,19146.8164,1.26301862446,-3.07703739484,0,0,
2616,2616,1.3080000,4760,1308,9999.52637,19144.6523,3.31357701721,-5.48856938205,0,0,
2617,2617,1.3085000,4761,1309,9998.32324,19145.4941,2.25369603027,-5.91975959114,0,0,
2618,2618,1.3090000,4761,1309,9998.56445,19148.9785,1.35018170581,-3.39954365915,0,0,
2619,2619,1.3095000,4762,1310,9997.3623,19149.9414,0.96750871059,-3.87122005538,0,0,
2620,2620,1.3100000,4762,1310,10000.2471,19148.8594,4.13944954299,-5.86586765617,0,0,
2621,2621,1.3105000,4763,1311,9996.04004,19146.6953,1.20114526222,-8.60217794562,0,0,
2622,2622,1.3110000,4763,1311,9996.16016,19147.0566,0.278715086974,-7.12299046289,0,0,
2623,2623,1.3115000,4764,1312,9995.43848,19142.8496,-0.375739996405,-9.59763415056,0,0,
2624,2624,1.3120000,4764,1312,9992.07324,19142.3691,-2.91938033111,-8.01993611218,0,0,
2625,2625,1.3125000,4765,1313,9997.84277,19141.0469,2.06860052674,-7.63443880452,0,0,
2626,2626,1.3130000,4765,1313,10001.209,19146.0957,5.1214913494,-0.706398226875,0,0,
2627,2627,1.3135000,4766,1314,10003.3721,19146.8164,6.09067540847,0.141220904386,0,0,
2628,2628,1.3140000,4766,1314,9998.56445,19148.9785,1.4317617331,3.40281250404,0,0,
2629,2629,1.3145000,4767,1315,10000.9678,19149.5801,2.45770564542,6.5976692574,0,0,
2630,2630,1.3150000,4767,1315,9997.96387,19147.7773,-0.635301618834,8.68264724559,0,0,
2631,2631,1.3155000,4768,1316,9999.04492,19149.2207,0.789572341319,11.1881981366,0,0,
2632,2632,1.3160000,4768,1316,9995.07812,19145.7344,-3.38587925888,6.74324965721,0,0,
2633,2633,1.3165000,4769,1317,9997.24219,19149.0996,-0.693296996323,7.74231589018,0,0,
2634,2634,1.3170000,4769,1317,10001.209,19145.7344,1.87477252257,2.67616777452,0,0,
2635,2635,1.3175000,4770,1318,9995.43848,19146.4551,-2.87378638713,2.79512036371,0,0,
2636,2636,1.3180000,4770,1318,9996.04004,19141.7676,-2.44080652798,-1.01810100741,0,0,
2637,2637,1.3185000,4771,1319,10002.4111,19132.6328,4.09932706686,-7.17782839574,0,0,
2638,2638,1.3190000,4771,1319,9999.88672,19130.3496,1.12053332657,-6.83957546103,0,0,
2639,2639,1.3195000,4772,1320,10000.9678,19128.3047,1.76651694963,-6.30076268598,0,0,
2640,2640,1.3200000,4772,1320,9999.04492,19137.4395,-1.02006084134,2.47221094785,0,0,
2641,2641,1.3205000,4773,1321,9997.84277,19141.2871,-2.1814844396,6.56449381204,0,0,
2642,2642,1.3210000,4773,1321,9999.40527,19145.373,0.0856148031252,9.13827616975,0,0,
2643,2643,1.3215000,4774,1322,10001.8096,19147.416,2.27805499649,9.67285374078,0,0,
2644,2644,1.3220000,4774,1322,10000.0068,19151.7441,0.618589184828,12.2599552666,0,0,
2645,2645,1.3225000,4775,1323,10003.4932,19151.0234,3.46664011738,11.3116115458,0,0,
2646,2646,1.3230000,4775,1323,10002.5312,19147.6582,0.302691964636,8.65964224032,0,0,
2647,2647,1.3235000,4776,1324,10000.2471,19150.3027,-1.3991605556,10.1177979298,0,0,
2648,2648,1.3240000,4776,1324,9997.72266,19152.9473,-3.15284149097,12.3441013633,0,0,
2649,2649,1.3245000,4777,1325,10000.6074,19148.6191,-1.21851345581,8.6344647237,0,0,
2650,2650,1.3250000,4777,1325,10000.8486,19152.8262,-0.82899502361,12.225121573,0,0,
2651,2651,1.3255000,4778,1326,10000.9678,19155.7109,-1.46933754968,13.4291686722,0,0,
2652,2652,1.3260000,4778,1326,9999.16504,19153.3066,-2.54857067197,8.33110647825,0,0,
2653,2653,1.3265000,4779,1327,9999.88672,19158.4746,-2.78178891086,10.524570213,0,0,
2654,2654,1.3270000,4779,1327,10000.6074,19160.3984,-1.14165749272,8.15751820316,0,0,
2655,2655,1.3275000,4780,1328,9999.88672,19160.6387,-1.88768662559,5.62894892692,0,0,
2656,2656,1.3280000,4780,1328,9997.48242,19161.9629,-4.56115487663,4.58983038862,0,0,
2657,2657,1.3285000,4781,1329,9997.72266,19159.918,-3.34664863013,-0.443018414548,0,0,
2658,2658,1.3290000,4781,1329,9999.28613,19160.0371,-2.44757227729,-2.77186160376,0,0,
2659,2659,1.3295000,4782,1330,10001.9297,19156.0723,0.610915708204,-7.98440635867,0,0,
2660,2660,1.3300000,4782,1330,10003.0117,19149.4609,1.25140931969,-13.9381741997,0,0,
2661,2661,1.3305000,4783,1331,10004.8154,19148.7402,3.68928581604,-13.9088004057,0,0,
2662,2662,1.3310000,4783,1331,10002.4111,19154.2676,-0.180607830866,-7.89867934679,0,0,
2663,2663,1.3315000,4784,1332,10006.2568,19156.1914,2.44633652681,-5.24587630461,0,0,
2664,2664,1.3320000,4784,1332,10003.7334,19154.5098,-0.158339378362,-6.32097952962,0,0,
2665,2665,1.3325000,4785,1333,10001.4492,19155.9512,-3.92093707269,-4.79665263758,0,0,
2666,2666,1.3330000,4785,1333,10000.4873,19154.0293,-4.64555109401,-6.2743579567,0,0,
2667,2667,1.3335000,4786,1334,10000.9678,19154.1484,-4.14213679623,-6.07801515299,0,0,
2668,2668,1.3340000,4786,1334,10002.5312,19154.6289,-1.42685274248,-4.70950458815,0,0,
2669,2669,1.3345000,4787,1335,10002.29,19158.3555,-2.68039861816,0.773426129301,0,0,
2670,2670,1.3350000,4787,1335,9998.32324,19160.2793,-5.37724163241,5.2783283464,0,0,
2671,2671,1.3355000,4788,1336,9999.28613,19157.9941,-3.66646032467,3.49498558427,0,0,
2672,2672,1.3360000,4788,1336,9999.52637,19154.8691,-2.96294777116,0.231992907896,0,0,
2673,2673,1.3365000,4789,1337,10003.6123,19158.8359,0.574536487814,1.45538372117,0,0,
2674,2674,1.3370000,4789,1337,10005.0557,19163.8848,0.129395187215,4.0650485638,0,0,
2675,2675,1.3375000,4790,1338,10002.29,19166.2891,-1.17692012282,3.94281978789,0,0,
2676,2676,1.3380000,4790,1338,10006.9785,19164.3652,1.99601541542,1.46401154201,0,0,
2677,2677,1.3385000,4791,1339,10006.9785,19159.5566,0.962064741143,-1.89278725523,0,0,
2678,2678,1.3390000,4791,1339,10007.7002,19145.0137,1.35883401466,-13.935148565,0,0,
2679,2679,1.3395000,4792,1340,10013.9502,19129.748,5.62685269436,-24.1153670812,0,0,
2680,2680,1.3400000,4792,1340,10008.7812,19120.8535,-0.448206982634,-29.2293748738,0,0,
2681,2681,1.3405000,4793,1341,10012.1475,19112.7988,1.79594233518,-30.1674057879,0,0,
2682,2682,1.3410000,4793,1341,10013.5898,19115.082,2.28060199759,-22.6289513908,0,0,
2683,2683,1.3415000,4794,1342,10010.4639,19124.8184,-1.45765252101,-9.48416487839,0,0,
2684,2684,1.3420000,4794,1342,10006.6182,19139.2441,-4.32693315676,5.16010484061,0,0,
2685,2685,1.3425000,4795,1343,10000.4873,19152.1055,-9.31181850831,17.5029379733,0,0,
2686,2686,1.3430000,4795,1343,9999.88672,19160.1582,-9.36621239639,24.0753163125,0,0,
2687,2687,1.3435000,4796,1344,9998.32324,19167.8516,-8.22752514436,26.7838049609,0,0,
2688,2688,1.3440000,4796,1344,10003.7334,19165.207,-1.62754574436,21.1177270248,0,0,
2689,2689,1.3445000,4797,1345,10004.334,19162.6816,-1.86656905037,17.674730876,0,0,
2690,2690,1.3450000,4797,1345,10005.5361,19158.4746,-0.311352303292,11.6864368555,0,0,
2691,2691,1.3455000,4798,1346,10009.623,19154.9902,2.63939579417,7.13463772806,0,0,
2692,2692,1.3460000,4798,1346,10006.8584,19153.5469,0.558630442277,4.6222721087,0,0,
2693,2693,1.3465000,4799,1347,10004.4541,19149.2207,-2.36139280464,-0.763102245857,0,0,
2694,2694,1.3470000,4799,1347,9997.96387,19151.8652,-6.49267560965,0.0497178588278,0,0,
2695,2695,1.3475000,4800,1348,9994.95801,19145.1328,-7.31729100815,-5.82815104629,0,0,
2696,2696,1.3480000,4800,1348,10002.1709,19120.7324,0.140705102964,-24.5995672648,0,0,
2697,2697,1.3485000,4801,1349,10018.5176,19091.8848,14.0248895956,-43.2221554856,0,0,
2698,2698,1.3490000,4801,1349,10027.5332,19094.0469,17.8584182219,-32.5618412552,0,0,
2699,2699,1.3495000,4802,1350,10019.2393,19107.0293,7.60690457427,-13.8194194586,0,0,
2700,2700,1.3500000,4802,1350,10017.1963,19117.7266,4.07490356192,0.513748883815,0,0,
2701,2701,1.3505000,4803,1351,10012.3877,19123.0156,-0.0952553676999,6.75106570248,0,0,
2702,2702,1.3510000,4803,1351,10015.1523,19138.8828,1.47510031697,19.849655736,0,0,
2703,2703,1.3515000,4804,1352,10017.4365,19145.4941,1.864909967,23.7289736023,0,0,
2704,2704,1.3520000,4804,1352,10013.1084,19146.5762,-1.75373579081,22.3101132905,0,0,
2705,2705,1.3525000,4805,1353,10010.9453,19157.7539,-4.38797368878,28.2237400367,0,0,
2706,2706,1.3530000,4805,1353,10009.1416,19170.2559,-5.40236861284,33.9989183768,0,0,
2707,2707,1.3535000,4806,1354,10013.9502,19177.2285,-1.13091736951,32.8481876454,0,0,
2708,2708,1.3540000,4806,1354,10012.9883,19175.1836,-1.39627611148,24.5077099916,0,0,
2709,2709,1.3545000,4807,1355,10019.3594,19167.6113,3.04353077894,13.5503654253,0,0,
2710,2710,1.3550000,4807,1355,10022.3643,19156.3125,5.47006493706,2.88613452453,0,0,
2711,2711,1.3555000,4808,1356,10017.7969,19149.3398,0.248586153277,-3.21174185513,0,0,
2712,2712,1.3560000,4808,1356,10009.2627,19152.4668,-7.1557511072,-0.76110894814,0,0,
2713,2713,1.3565000,4809,1357,10005.2959,19153.0664,-10.0503596158,-3.58174213905,0,0,
2714,2714,1.3570000,4809,1357,10007.9404,19156.9121,-7.29951032686,-2.84137117592,0,0,
2715,2715,1.3575000,4810,1358,10012.3877,19155.3496,-0.811019689961,-6.23591844333,0,0,
2716,2716,1.3580000,4810,1358,10009.623,19163.8848,-4.00164039014,0.830532308566,0,0,
2717,2717,1.3585000,4811,1359,10007.7002,19178.6699,-4.79805864252,12.6615568428,0,0,
2718,2718,1.3590000,4811,1359,10006.4971,19186.6035,-4.28397009864,16.6121460794,0,0,
2719,2719,1.3595000,4812,1360,10005.6562,19192.7324,-4.70085846818,17.7459044952,0,0,
2720,2720,1.3600000,4812,1360,10007.7002,19190.0879,-0.804197044797,7.88148594644,0,0,
2721,2721,1.3605000,4813,1361,10009.2627,19179.9922,0.846958816088,-5.16099015661,0,0,
2722,2722,1.3610000,4813,1361,10009.5029,19175.6641,1.72292569787,-13.476391879,0,0,
2723,2723,1.3615000,4814,1362,10012.5078,19180.834,5.1537937856,-13.3544097505,0,0,
2724,2724,1.3620000,4814,1362,10010.2236,19183.8379,4.3123831577,-15.8023775242,0,0,
2725,2725,1.3625000,4815,1363,10011.9072,19186.4824,6.47244380497,-16.3136760658,0,0,
2726,2726,1.3630000,4815,1363,10011.1855,19185.2812,4.75695293992,-18.340878717,0,0,
2727,2727,1.3635000,4816,1364,10013.1084,19181.7949,7.03381476412,-23.1045791266,0,0,
2728,2728,1.3640000,4816,1364,10013.5898,19171.5781,6.37859034804,-29.6098725264,0,0,
2729,2729,1.3645000,4817,1365,10014.792,19165.207,5.76944763358,-30.1934342341,0,0,
2730,2730,1.3650000,4817,1365,10015.6328,19161.2402,5.77120324884,-29.1611386944,0,0,
2731,2731,1.3655000,4818,1366,10020.4414,19159.918,7.89084191577,-25.8677675905,0,0,
2732,2732,1.3660000,4818,1366,10019.2393,19159.7988,6.61748336089,-22.3717880682,0,0,
2733,2733,1.3665000,4819,1367,10017.6768,19167.7324,3.8927677196,-12.9004314798,0,0,
2734,2734,1.3670000,4819,1367,10015.5127,19177.1074,2.95815097018,-5.37361935234,0,0,
2735,2735,1.3675000,4820,1368,10015.0322,19181.1934,2.55182228651,-1.08675964717,0,0,
2736,2736,1.3680000,4820,1368,10017.0752,19176.2656,2.28185959787,-1.89530898483,0,0,
2737,2737,1.3685000,4821,1369,10021.5225,19168.9336,2.83800933572,-4.07035248353,0,0,
2738,2738,1.3690000,4821,1369,10017.6768,19163.043,-3.18034693134,-9.88529659285,0,0,
2739,2739,1.3695000,4822,1370,10015.0322,19163.5254,-3.37751431031,-10.427183304,0,0,
2740,2740,1.3700000,4822,1370,10014.5518,19169.4141,-2.88296096935,-5.31788308343,0,0,
2741,2741,1.3705000,4823,1371,10021.042,19171.0957,4.42910208954,-4.37368531531,0,0,
2742,2742,1.3710000,4823,1371,10017.917,19169.1738,0.296599973026,-8.42278941563,0,0,
2743,2743,1.3715000,4824,1372,10017.917,19167.8516,-0.794771579395,-8.52335461805,0,0,
2744,2744,1.3720000,4824,1372,10023.5664,19173.2598,5.12280877845,-1.72451748963,0,0,
2745,2745,1.3725000,4825,1373,10019.4795,19179.0293,0.378260736652,2.00937371557,0,0,
2746,2746,1.3730000,4825,1373,10018.8779,19174.3418,-0.131904268227,-3.10934322275,0,0,
2747,2747,1.3735000,4826,1374,10019.7197,19173.6211,-0.759245346153,-3.38363250134,0,0,
2748,2748,1.3740000,4826,1374,10019.1191,19170.1348,-0.745460547793,-3.62543620032,0,0,
2749,2749,1.3745000,4827,1375,10020.0811,19167.8516,-1.70654345634,-1.02417364273,0,0,
2750,2750,1.3750000,4827,1375,10017.5557,19170.1348,-3.41764238706,6.82590870474,0,0,
2751,2751,1.3755000,4828,1376,10017.7969,19168.0918,-2.02493896282,8.37324071008,0,0,
2752,2752,1.3760000,4828,1376,10021.7637,19174.2227,2.77356641932,14.0205157189,0,0,
2753,2753,1.3765000,4829,1377,10018.2773,19170.8574,-0.808678468422,9.16101419453,0,0,
2754,2754,1.3770000,4829,1377,10018.7588,19171.5781,-1.9563942987,8.40073744592,0,0,
2755,2755,1.3775000,4830,1378,10022.0039,19170.9766,1.17870562088,8.00882394017,0,0,
2756,2756,1.3780000,4830,1378,10018.0371,19170.8574,-3.07347085389,7.80239498907,0,0,
2757,2757,1.3785000,4831,1379,10021.8838,19170.6152,0.476861989371,7.58186004924,0,0,
2758,2758,1.3790000,4831,1379,10020.5615,19168.8125,-0.638015646739,7.63981173043,0,0,
2759,2759,1.3795000,4832,1380,10019.8398,19170.2559,-2.12535600244,10.6152053563,0,0,
2760,2760,1.3800000,4832,1380,10022.4844,19166.8887,0.329497502106,8.08890327151,0,0,
2761,2761,1.3805000,4833,1381,10018.8779,19168.4531,-3.61645460959,12.3283774647,0,0,
2762,2762,1.3810000,4833,1381,10021.7637,19169.5332,-0.841983643153,12.4910317495,0,0,
2763,2763,1.3815000,4834,1382,10026.2109,19164.4863,2.56036017949,5.36607197758,0,0,
2764,2764,1.3820000,4834,1382,10026.5713,19169.2949,3.35434344887,7.33890431946,0,0,
2765,2765,1.3825000,4835,1383,10024.0479,19168.8125,0.655965149155,6.06715728202,0,0,
2766,2766,1.3830000,4835,1383,10022.4844,19170.8574,-1.53467715265,8.84684954578,0,0,
2767,2767,1.3835000,4836,1384,10024.7686,19173.0215,0.619166378358,10.3680604498,0,0,
2768,2768,1.3840000,4836,1384,10023.5664,19173.8613,-1.23943749308,13.5182785091,0,0,
2769,2769,1.3845000,4837,1385,10025.0088,19176.1465,-1.18250941598,17.3032055818,0,0,
2770,2770,1.3850000,4837,1385,10022.3643,19176.7461,-3.68233048677,17.5959666427,0,0,
2771,2771,1.3855000,4838,1386,10024.4072,19176.2656,-3.30264293266,16.0978751655,0,0,
2772,2772,1.3860000,4838,1386,10021.7637,19173.9824,-4.13727448934,12.4878147757,0,0,
2773,2773,1.3865000,4839,1387,10024.0479,19176.7461,-1.7332211657,11.8932786317,0,0,
2774,2774,1.3870000,4839,1387,10022.6045,19173.1406,-1.23457908621,4.61938584591,0,0,
2775,2775,1.3875000,4840,1388,10024.2881,19175.6641,0.665457624764,6.37817870048,0,0,
2776,2776,1.3880000,4840,1388,10020.5615,19176.5059,-4.12959258469,10.1439757007,0,0,
2777,2777,1.3885000,4841,1389,10021.1621,19166.7695,-5.6978893374,5.09900170247,0,0,
2778,2778,1.3890000,4841,1389,10026.8115,19158.1152,-1.18743286152,-2.70971759056,0,0,
2779,2779,1.3895000,4842,1390,10028.7354,19150.0605,2.14681840991,-10.522800536,0,0,
2780,2780,1.3900000,4842,1390,10026.2109,19148.6191,-0.0720310440383,-11.4477881884,0,0,
2781,2781,1.3905000,4843,1391,10022.6045,19152.1055,-2.87933375621,-7.27810914393,0,0,
2782,2782,1.3910000,4843,1391,10025.1289,19157.1543,-0.281481801924,-3.59116019598,0,0,
2783,2783,1.3915000,4844,1392,10025.1289,19157.7539,-0.942381305825,-2.33469206774,0,0,
2784,2784,1.3920000,4844,1392,10025.4893,19156.6738,-0.302635342812,-2.81519424607,0,0,
2785,2785,1.3925000,4845,1393,10020.5615,19152.4668,-3.65467549935,-7.46643993113,0,0,
2786,2786,1.3930000,4845,1393,10023.8066,19151.9844,0.16469709675,-6.16898635002,0,0,
2787,2787,1.3935000,4846,1394,10022.9658,19149.8223,-1.36353644355,-6.64927768478,0,0,
2788,2788,1.3940000,4846,1394,10026.0908,19149.2207,2.22378996194,-3.60132241048,0,0,
2789,2789,1.3945000,4847,1395,10024.5283,19148.8594,-0.72366087718,0.191151492056,0,0,
2790,2790,1.3950000,4847,1395,10025.1289,19149.4609,0.728725388638,4.76814183313,0,0,
2791,2791,1.3955000,4848,1396,10025.1289,19150.3027,1.34669522228,8.20518123356,0,0,
2792,2792,1.3960000,4848,1396,10026.0908,19150.3027,2.5124415672,7.02844886403,0,0,
2793,2793,1.3965000,4849,1397,10024.2881,19150.7832,1.32584625886,6.56103351852,0,0,
2794,2794,1.3970000,4849,1397,10026.9326,19153.3066,2.12207095479,6.89005726175,0,0,
2795,2795,1.3975000,4850,1398,10023.8066,19156.1914,-0.93185911264,8.49949683057,0,0,
2796,2796,1.3980000,4850,1398,10021.7637,19159.4375,-2.03228287029,9.54286946891,0,0,
2797,2797,1.3985000,4851,1399,10021.5225,19164.125,-2.19170144515,11.3161841801,0,0,
2798,2798,1.3990000,4851,1399,10022.3643,19166.1699,-0.358611601698,11.7156547783,0,0,
2799,2799,1.3995000,4852,1400,10023.3262,19166.4082,0.289097008769,9.92911234402,0,0,
2800,2800,1.4000000,4852,1400,10023.9268,19166.4082,0.706545311917,7.95896709218,0,0,
2801,2801,1.4005000,4853,1401,10030.2979,19154.2676,6.03413440518,-2.69669204432,0,0,
2802,2802,1.4010000,4853,1401,10028.2549,19142.6094,2.88738314292,-13.0900242683,0,0,
2803,2803,1.4015000,4854,1402,10031.9805,19136.8398,4.62314433738,-17.3335130039,0,0,
2804,2804,1.4020000,4854,1402,10032.2207,19133.4746,4.92086534129,-20.4147622452,0,0,
2805,2805,1.4025000,4855,1403,10030.0576,19139.7246,2.85883448528,-12.8431574613,0,0,
2806,2806,1.4030000,4855,1403,10031.3799,19145.373,3.17928057485,-6.09057819782,0,0,
2807,2807,1.4035000,4856,1404,10027.293,19138.1621,-0.985805952187,-11.6017618074,0,0,
2808,2808,1.4040000,4856,1404,10025.6104,19130.709,-2.41042270678,-13.3911840919,0,0,
2809,2809,1.4045000,4857,1405,10025.249,19120.9727,-3.3475053897,-16.4819118823,0,0,
2810,2810,1.4050000,4857,1405,10024.2881,19123.377,-3.25582004641,-9.50843639558,0,0,
2811,2811,1.4055000,4858,1406,10026.5713,19129.9883,-2.42165982105,-0.62094051886,0,0,
2812,2812,1.4060000,4858,1406,10026.9326,19130.709,-0.422124227883,1.53122788158,0,0,
2813,2813,1.4065000,4859,1407,10025.6104,19131.5508,-1.73803427687,1.25207163303,0,0,
2814,2814,1.4070000,4859,1407,10027.4131,19134.7949,1.59935206763,2.80699424385,0,0,
2815,2815,1.4075000,4860,1408,10030.8984,19129.9883,4.26767343177,-1.33082831035,0,0,
2816,2816,1.4080000,4860,1408,10033.6631,19123.498,5.0825750039,-2.68849453619,0,0,
2817,2817,1.4085000,4861,1409,10036.3076,19114.002,3.79467279797,-3.90427911759,0,0,
2818,2818,1.4090000,4861,1409,10033.0625,19112.3184,-1.64683330638,-2.29400690648,0,0,
2819,2819,1.4095000,4862,1410,10031.7402,19115.6836,-1.71184924642,1.35432673757,0,0,
2820,2820,1.4100000,4862,1410,10030.1777,19124.6992,-2.22159781664,7.55036022732,0,0,
2821,2821,1.4105000,4863,1411,10024.5283,19135.5176,-5.83518944297,13.5344268251,0,0,
2822,2822,1.4110000,4863,1411,10030.0576,19143.8105,-0.750821431184,14.845910842,0,0,
2823,2823,1.4115000,4864,1412,10029.4561,19148.8594,-1.75428364908,15.042362424,0,0,
2824,2824,1.4120000,4864,1412,10028.2549,19147.1777,-2.39032324788,9.46742451312,0,0,
2825,2825,1.4125000,4865,1413,10028.7354,19144.5332,-0.329991982635,2.93903608163,0,0,
2826,2826,1.4130000,4865,1413,10031.6201,19145.4941,1.80142189132,1.2474353501,0,0,
2827,2827,1.4135000,4866,1414,10033.3027,19139.6035,2.12856859552,-5.80202994478,0,0,
2828,2828,1.4140000,4866,1414,10030.2979,19142.3691,-0.827685843416,-3.20635866614,0,0,
2829,2829,1.4145000,4867,1415,10027.4131,19143.0898,-3.93600392264,-2.08376044323,0,0,
2830,2830,1.4150000,4867,1415,10027.0518,19143.8105,-3.04581252362,-0.896975725119,0,0,
2831,2831,1.4155000,4868,1416,10031.0186,19140.084,1.26771404031,-4.0146423315,0,0,
2832,2832,1.4160000,4868,1416,10029.3359,19133.3535,-0.0666163918316,-11.3712536885,0,0,
2833,2833,1.4165000,4869,1417,10029.8174,19128.9062,1.17627016729,-15.2760665471,0,0,
2834,2834,1.4170000,4869,1417,10030.2979,19129.748,-0.0207871880943,-14.9661251239,0,0,
2835,2835,1.4175000,4870,1418,10033.0625,19127.7051,2.59365647144,-15.9593120259,0,0,
2836,2836,1.4180000,4870,1418,10031.3799,19130.3496,1.24373157935,-13.0953323182,0,0,
2837,2837,1.4185000,4871,1419,10034.1445,19129.8672,2.79335470058,-13.3600041309,0,0,
2838,2838,1.4190000,4871,1419,10031.8604,19130.2285,0.549878873074,-11.1468931609,0,0,
2839,2839,1.4195000,4872,1420,10032.2207,19135.3965,0.0826266377916,-5.29249513549,0,0,
2840,2840,1.4200000,4872,1420,10030.5381,19145.373,-1.74818061728,3.35266729833,0,0,
2841,2841,1.4205000,4873,1421,10028.2549,19151.5039,-4.34784451386,9.85951958493,0,0,
2842,2842,1.4210000,4873,1421,10028.0137,19151.623,-3.74995613347,8.18475649877,0,0,
2843,2843,1.4215000,4874,1422,10033.4229,19143.4512,0.155768524863,-1.68499550341,0,0,
2844,2844,1.4220000,4874,1422,10030.2979,19130.4688,-1.56260345311,-15.4224860193,0,0,
2845,2845,1.4225000,4875,1423,10029.3359,19126.2617,-0.970379987645,-19.1673885162,0,0,
2846,2846,1.4230000,4875,1423,10031.3799,19128.3047,0.781723842462,-15.9356716065,0,0,
2847,2847,1.4235000,4876,1424,10034.8652,19130.5879,4.24597131484,-11.2373748871,0,0,
2848,2848,1.4240000,4876,1424,10033.543,19138.041,2.66973016792,-0.923189396056,0,0,
2849,2849,1.4245000,4877,1425,10035.4658,19139.4844,3.03478558846,2.88098595035,0,0,
2850,2850,1.4250000,4877,1425,10038.7119,19140.5645,5.43536078104,3.08055042326,0,0,
2851,2851,1.4255000,4878,1426,10039.4326,19139.7246,3.15307302853,0.702064506837,0,0,
2852,2852,1.4260000,4878,1426,10037.0293,19141.166,1.28933452594,1.37530590544,0,0,
2853,2853,1.4265000,4879,1427,10037.6299,19147.416,1.18773890176,4.09460604286,0,0,
2854,2854,1.4270000,4879,1427,10036.9092,19150.543,0.949355323811,3.19061647,0,0,
2855,2855,1.4275000,4880,1428,10037.3896,19153.9082,0.34355415759,4.83840795933,0,0,
2856,2856,1.4280000,4880,1428,10034.3848,19147.5371,-3.38224700034,1.12915432769,0,0,
2857,2857,1.4285000,4881,1429,10036.0674,19137.2012,-3.90750195993,-2.78714203037,0,0,
2858,2858,1.4290000,4881,1429,10034.625,19119.4102,-5.46562898579,-16.1648547032,0,0,
2859,2859,1.4295000,4882,1430,10038.2314,19116.7656,-0.679249833623,-16.5860721579,0,0,
2860,2860,1.4300000,4882,1430,10041.4766,19128.666,2.69947652362,-6.73843482004,0,0,
2861,2861,1.4305000,4883,1431,10043.6396,19134.916,5.19316277174,-3.67089467662,0,0,
2862,2862,1.4310000,4883,1431,10041.8369,19140.2051,1.14724433491,-2.3123523513,0,0,
2863,2863,1.4315000,4884,1432,10041.8369,19144.4121,0.179244121934,0.27821326699,0,0,
2864,2864,1.4320000,4884,1432,10041.7168,19146.8164,-0.128735186423,2.18286868541,0,0,
2865,2865,1.4325000,4885,1433,10041.958,19147.6582,0.548196116068,1.90750184567,0,0,
2866,2866,1.4330000,4885,1433,10041.4766,19148.1387,-1.08758093417,1.53921357943,0,0,
2867,2867,1.4335000,4886,1434,10044.1211,19151.9844,0.00935849797331,5.14777614035,0,0,
2868,2868,1.4340000,4886,1434,10046.8857,19156.1914,2.21407813105,7.96095837466,0,0,
2869,2869,1.4345000,4887,1435,10046.8857,19152.2246,0.996784537287,4.51914513579,0,0,
2870,2870,1.4350000,4887,1435,10045.6836,19144.7715,-0.401600007117,-0.736790671335,0,0,
2871,2871,1.4355000,4888,1436,10046.165,19148.3789,-0.869088043525,4.51257465786,0,0,
2872,2872,1.4360000,4888,1436,10047.8467,19162.4434,0.452253312587,15.7782003042,0,0,
2873,2873,1.4365000,4889,1437,10045.4434,19181.4355,-1.72084996418,28.2513092314,0,0,
2874,2874,1.4370000,4889,1437,10046.7656,19189.248,-2.19451775373,27.0844466852,0,0,
2875,2875,1.4375000,4890,1438,10047.126,19186.123,-2.32937552574,17.9766752392,0,0,
2876,2876,1.4380000,4890,1438,10047.6064,19179.752,-1.44356260927,6.61787203745,0,0,
2877,2877,1.4385000,4891,1439,10047.126,19176.5059,-2.96227314171,0.172794265316,0,0,
2878,2878,1.4390000,4891,1439,10047.6064,19175.4238,-2.03150059811,-2.20446326059,0,0,
2879,2879,1.4395000,4892,1440,10048.9287,19168.4531,-1.63427144129,-9.5936404476,0,0,
2880,2880,1.4400000,4892,1440,10047.2461,19174.7031,-3.22363707775,-5.47970806364,0,0,
2881,2881,1.4405000,4893,1441,10047.8467,19175.0645,-3.04841860423,-3.95158106429,0,0,
2882,2882,1.4410000,4893,1441,10051.4531,19165.4473,-0.011224935711,-11.0977179457,0,0,
2883,2883,1.4415000,4894,1442,10048.9287,19158.3555,-4.40306115335,-14.4546688533,0,0,
2884,2884,1.4420000,4894,1442,10048.4482,19157.1543,-3.19671258342,-12.7647541575,0,0,
2885,2885,1.4425000,4895,1443,10047.0059,19161.7207,-3.13594485167,-7.88339848408,0,0,
2886,2886,1.4430000,4895,1443,10048.208,19164.6055,-2.31371037116,-5.40756386079,0,0,
2887,2887,1.4435000,4896,1444,10048.3281,19166.6504,-1.98249528196,-2.64835757448,0,0,
2888,2888,1.4440000,4896,1444,10045.9238,19162.6816,-3.22390640619,-4.24746381168,0,0,
2889,2889,1.4445000,4897,1445,10049.6504,19160.3984,-0.46699944004,-2.71222410515,0,0,
2890,2890,1.4450000,4897,1445,10052.2949,19161.8418,1.57740838816,-0.221894305509,0,0,
2891,2891,1.4455000,4898,1446,10054.8193,19158.5957,1.89629524097,-2.27060097781,0,0,
2892,2892,1.4460000,4898,1446,10053.9775,19150.1816,1.98406926462,-7.64412085292,0,0,
2893,2893,1.4465000,4899,1447,10051.6943,19151.623,-0.394400614509,-5.81370768079,0,0,
2894,2894,1.4470000,4899,1447,10044.2412,19154.9902,-5.45881242331,-2.35685175029,0,0,
2895,2895,1.4475000,4900,1448,10046.2842,19157.2734,-2.99951136016,1.55468612729,0,0,
2896,2896,1.4480000,4900,1448,10047.126,19161.7207,-1.63262776925,10.5375014556,0,0,
2897,2897,1.4485000,4901,1449,10052.1748,19156.1914,1.08501433192,12.185868599,0,0,
2898,2898,1.4490000,4901,1449,10055.9014,19155.4707,3.7893196262,15.1410404863,0,0,
2899,2899,1.4495000,4902,1450,10056.3818,19165.9277,3.97332658353,22.1249725024,0,0,
2900,2900,1.4500000,4902,1450,10052.2949,19169.4141,0.316112765083,17.9085697272,0,0,
2901,2901,1.4505000,4903,1451,10050.6123,19175.6641,0.0959086261666,17.0366389524,0,0,
2902,2902,1.4510000,4903,1451,10049.8906,19179.0293,-0.786322148781,13.5471685183,0,0,
2903,2903,1.4515000,4904,1452,10054.5791,19177.709,3.32591802692,8.7462669325,0,0,
2904,2904,1.4520000,4904,1452,10056.502,19170.2559,4.87287877339,1.10018771154,0,0,
2905,2905,1.4525000,4905,1453,10061.5498,19163.1641,9.03213024645,-4.90676383936,0,0,
2906,2906,1.4530000,4905,1453,10060.4688,19163.5254,6.15916932766,-3.40797321037,0,0,
2907,2907,1.4535000,4906,1454,10058.3047,19162.5625,2.27585731283,-2.75050746659,0,0,
2908,2908,1.4540000,4906,1454,10060.1084,19162.5625,3.29609566378,-1.63302686957,0,0,
2909,2909,1.4545000,4907,1455,10061.5498,19158.8359,3.67674335252,-1.48609836419,0,0,
2910,2910,1.4550000,4907,1455,10058.665,19162.4434,1.10851637369,5.51356682896,0,0,
2911,2911,1.4555000,4908,1456,10053.7373,19159.918,-3.42898911242,4.74920983391,0,0,
2912,2912,1.4560000,4908,1456,10050.8525,19163.2832,-4.95168026268,6.07613150884,0,0,
2913,2913,1.4565000,4909,1457,10051.333,19156.3125,-2.59505400045,-2.24824379312,0,0,
2914,2914,1.4570000,4909,1457,10050.0107,19156.3125,-4.06143758804,-2.64681153503,0,0,
2915,2915,1.4575000,4910,1458,10051.8135,19154.75,-1.65017077598,-1.31009020288,0,0,
2916,2916,1.4580000,4910,1458,10054.0977,19153.1855,1.42376862677,-0.379719969458,0,0,
2917,2917,1.4585000,4911,1459,10057.7041,19158.1152,3.96028623966,5.47863499726,0,0,
2918,2918,1.4590000,4911,1459,10060.9492,19151.8652,6.56464420439,1.70636586667,0,0,
2919,2919,1.4595000,4912,1460,10060.2275,19152.8262,4.37686050929,4.92547447333,0,0,
2920,2920,1.4600000,4912,1460,10059.0264,19162.2012,3.04576489136,11.5040252512,0,0,
2921,2921,1.4605000,4913,1461,10057.7041,19167.25,1.1033595501,16.4040182096,0,0,
2922,2922,1.4610000,4913,1461,10057.4639,19167.7324,0.243273015198,17.6994908525,0,0,
2923,2923,1.4615000,4914,1462,10056.0205,19166.2891,-1.90652530315,16.5360443932,0,0,
2924,2924,1.4620000,4914,1462,10054.5791,19170.6152,-1.52749427539,18.3981655436,0,0,
2925,2925,1.4625000,4915,1463,10051.9346,19167.6113,-2.14819649195,11.4997449824,0,0,
2926,2926,1.4630000,4915,1463,10050.3721,19166.7695,-3.28442633838,7.43099009516,0,0,
2927,2927,1.4635000,4916,1464,10050.7324,19167.6113,-1.99749083063,6.43582464911,0,0,
2928,2928,1.4640000,4916,1464,10053.6172,19167.6113,1.92386251559,6.43622349933,0,0,
2929,2929,1.4645000,4917,1465,10054.6982,19173.502,1.59038192624,11.6876204119,0,0,
2930,2930,1.4650000,4917,1465,10057.8242,19174.9434,3.66572362904,9.8322989535,0,0,
2931,2931,1.4655000,4918,1466,10055.7803,19178.791,0.164049303212,10.3857638932,0,0,
2932,2932,1.4660000,4918,1466,10054.6982,19180.2324,0.727030165282,9.56536734094,0,0,
2933,2933,1.4665000,4919,1467,10054.458,19184.4395,1.08600441092,7.45856574764,0,0,
2934,2934,1.4670000,4919,1467,10054.9395,19187.5645,3.5757303235,4.32843653476,0,0,
2935,2935,1.4675000,4920,1468,10053.7373,19186.123,1.59339894435,-0.591454880428,0,0,
2936,2936,1.4680000,4920,1468,10052.1748,19187.6855,0.0853964920485,0.422605204437,0,0,
2937,2937,1.4685000,4921,1469,10053.7373,19179.9922,-0.766153636345,-2.85193389147,0,0,
2938,2938,1.4690000,4921,1469,10055.1797,19173.9824,-0.0635134488639,-6.84560224431,0,0,
2939,2939,1.4695000,4922,1470,10057.2236,19176.2656,2.05295657298,-8.71505591324,0,0,
2940,2940,1.4700000,4922,1470,10056.9824,19180.3535,2.55951258642,-10.8079516064,0,0,
2941,2941,1.4705000,4923,1471,10057.1025,19179.752,3.40593552534,-16.3265565585,0,0,
2942,2942,1.4710000,4923,1471,10054.5791,19183.8379,0.51511344435,-16.5989563084,0,0,
2943,2943,1.4715000,4924,1472,10052.8955,19184.7988,-1.71815687592,-16.8906226981,0,0,
2944,2944,1.4720000,4924,1472,10053.2568,19186.8438,-0.989899192295,-14.1221517888,0,0,
2945,2945,1.4725000,4925,1473,10054.2178,19189.9688,-0.0521694820964,-11.1748662373,0,0,
2946,2946,1.4730000,4925,1473,10049.0498,19188.5254,-4.12246540159,-13.5760896602,0,0,
2947,2947,1.4735000,4926,1474,10049.7705,19187.6855,-2.86419293079,-14.4389567392,0,0,
2948,2948,1.4740000,4926,1474,10053.376,19184.3184,0.656753237351,-17.4871800874,0,0,
2949,2949,1.4745000,4927,1475,10056.3818,19180.9531,2.97760966924,-17.4530889265,0,0,
2950,2950,1.4750000,4927,1475,10057.4639,19180.9531,4.47826136167,-15.0480208478,0,0,
2951,2951,1.4755000,4928,1476,10053.4971,19177.3477,1.20549528963,-15.984077949,0,0,
2952,2952,1.4760000,4928,1476,10053.2568,19178.3086,1.51529890324,-16.0479407929,0,0,
2953,2953,1.4765000,4929,1477,10057.7041,19180.834,5.53112452504,-13.7358193726,0,0,
2954,2954,1.4770000,4929,1477,10059.7471,19177.1074,5.39603346756,-17.4298582045,0,0,
2955,2955,1.4775000,4930,1478,10058.5459,19174.2227,2.77601756133,-16.9722782649,0,0,
2956,2956,1.4780000,4930,1478,10059.2666,19170.6152,2.57696414352,-17.0939319822,0,0,
2957,2957,1.4785000,4931,1479,10058.0645,19173.1406,-0.250574189599,-13.170129096,0,0,
2958,2958,1.4790000,4931,1479,10057.2236,19168.8125,-1.49774630435,-12.9969282177,0,0,
2959,2959,1.4795000,4932,1480,10056.9824,19172.7793,-2.16268160802,-6.76951271522,0,0,
2960,2960,1.4800000,4932,1480,10059.2666,19176.627,0.112510910551,-5.27435681613,0,0,
2961,2961,1.4805000,4933,1481,10062.2715,19178.9102,1.90640173367,-1.87401774991,0,0,
2962,2962,1.4810000,4933,1481,10061.5498,19179.9922,-0.0563237684004,1.78438811616,0,0,
2963,2963,1.4815000,4934,1482,10058.0645,19176.2656,-4.11868748662,0.937957861883,0,0,
2964,2964,1.4820000,4934,1482,10059.627,19169.7754,-1.66437998841,-4.07483962413,0,0,
2965,2965,1.4825000,4935,1483,10054.9395,19172.9004,-4.55665384027,-0.664571185121,0,0,
2966,2966,1.4830000,4935,1483,10057.2236,19177.4668,-2.66299617237,2.98855396965,0,0,
2967,2967,1.4835000,4936,1484,10057.9443,19179.3906,-2.27303144169,4.44199064534,0,0,
2968,2968,1.4840000,4936,1484,10059.9873,19173.7402,-0.69543045469,0.981789753119,0,0,
2969,2969,1.4845000,4937,1485,10061.0693,19171.9395,-1.55589972884,0.978888592736,0,0,
2970,2970,1.4850000,4937,1485,10061.3096,19173.2598,-2.72653991449,2.5879132544,0,0,
2971,2971,1.4855000,4938,1486,10063.9541,19171.8184,-1.64072881811,1.6569046373,0,0,
2972,2972,1.4860000,4938,1486,10060.2275,19172.7793,-4.0198495243,4.13246776787,0,0,
2973,2973,1.4865000,4939,1487,10063.3535,19171.2168,-1.14197533125,1.02725608734,0,0,
2974,2974,1.4870000,4939,1487,10059.0264,19163.4043,-3.68458023136,-6.40581425687,0,0,
2975,2975,1.4875000,4940,1488,10064.1943,19164.0059,0.17452025469,-3.34605811586,0,0,
2976,2976,1.4880000,4940,1488,10058.5459,19176.0254,-5.11122284302,10.2143272686,0,0,
2977,2977,1.4885000,4941,1489,10055.54,19184.3184,-9.40902422822,22.4231442786,0,0,
2978,2978,1.4890000,4941,1489,10051.0928,19188.4062,-12.6845713372,26.1994356224,0,0,
2979,2979,1.4895000,4942,1490,10051.5732,19185.8809,-10.3642796829,17.9153489607,0,0,
2980,2980,1.4900000,4942,1490,10055.7803,19184.0801,-4.37043151814,9.64947672158,0,0,
2981,2981,1.4905000,4943,1491,10058.5459,19177.2285,-0.519540282114,-0.483579313764,0,0,
2982,2982,1.4910000,4943,1491,10057.8242,19169.2949,-0.869850238809,-9.99240682765,0,0,
2983,2983,1.4915000,4944,1492,10058.9062,19160.0371,-0.265002825992,-16.0770239775,0,0,
2984,2984,1.4920000,4944,1492,10055.1797,19164.6055,-3.29796271233,-8.01798424241,0,0,
2985,2985,1.4925000,4945,1493,10054.9395,19163.8848,-3.06125579232,-5.90348315251,0,0,
2986,2986,1.4930000,4945,1493,10059.7471,19169.0527,2.37439005384,0.619928336134,0,0,
2987,2987,1.4935000,4946,1494,10057.1025,19171.5781,-0.489163758642,4.12253829806,0,0,
2988,2988,1.4940000,4946,1494,10056.8623,19170.7363,-1.1988044274,4.31374313774,0,0,
2989,2989,1.4945000,4947,1495,10056.8623,19163.1641,-1.43921672484,0.881069633111,0,0,
2990,2990,1.4950000,4947,1495,10058.4248,19163.1641,0.993820456788,3.31716277439,0,0,
2991,2991,1.4955000,4948,1496,10058.9062,19162.6816,2.6700619314,5.39870533701,0,0,
2992,2992,1.4960000,4948,1496,10059.7471,19158.5957,3.64936849131,0.859556980343,0,0,
2993,2993,1.4965000,4949,1497,10058.5459,19150.543,2.00413870128,-5.46319568046,0,0,
2994,2994,1.4970000,4949,1497,10057.2236,19149.0996,-0.0623127572208,-4.54543316218,0,0,
2995,2995,1.4975000,4950,1498,10056.2617,19149.9414,-0.676180680491,0.0588880989388,0,0,
2996,2996,1.4980000,4950,1498,10059.3867,19150.0605,2.21189131349,3.24672483153,0,0,
2997,2997,1.4985000,4951,1499,10057.2236,19151.623,-0.236346345219,5.02361533614,0,0,
2998,2998,1.4990000,4951,1499,10056.0205,19155.2305,-0.835871734161,11.0415400324,0,0,
2999,2999,1.4995000,4952,1500,10055.9014,19153.668,-0.593410134919,9.5332622078,0,0,
3000,3000,1.5000000,4952,1500,10056.7422,19156.3125,0.629696521812,8.77292841697,0,0,
3001,3001,1.5005000,4953,1501,10059.3867,19158.2363,2.52517068582,10.3752564688,0,0,
3002,3002,1.5010000,4953,1501,10061.4307,19162.4434,3.91727216541,14.994203553,0,0,
3003,3003,1.5015000,4954,1502,10056.8623,19165.9277,-0.0400848670312,18.7157315222,0,0,
3004,3004,1.5020000,4954,1502,10055.1797,19166.4082,-0.396219017202,17.679818432,0,0,
3005,3005,1.5025000,4955,1503,10057.9443,19162.3223,4.12146217719,10.8701184555,0,0,
3006,3006,1.5030000,4955,1503,10058.3047,19160.1582,3.4779672637,6.2037762122,0,0,
3007,3007,1.5035000,4956,1504,10054.8193,19165.8086,0.179222551875,9.53008293072,0,0,
3008,3008,1.5040000,4956,1504,10055.9014,19163.7637,1.17779893327,8.20190482329,0,0,
3009,3009,1.5045000,4957,1505,10059.2666,19163.1641,2.93609252321,7.14110615929,0,0,
3010,3010,1.5050000,4957,1505,10059.0264,19165.207,1.7283171236,6.92152492462,0,0,
3011,3011,1.5055000,4958,1506,10063.3535,19164.7266,4.0997284472,4.91810995121,0,0,
3012,3012,1.5060000,4958,1506,10060.8291,19164.7266,2.98350982486,4.08901684119,0,0,
3013,3013,1.5065000,4959,1507,10059.0264,19167.7324,0.892947315999,3.62884658641,0,0,
3014,3014,1.5070000,4959,1507,10057.8242,19165.8086,1.85217421859,0.146455814043,0,0,
3015,3015,1.5075000,4960,1508,10056.8623,19167.6113,-0.17539772173,0.447799413618,0,0,
3016,3016,1.5080000,4960,1508,10057.8242,19167.9707,1.83832460699,-1.11601820835,0,0,
3017,3017,1.5085000,4961,1509,10059.0264,19168.332,1.41065139126,1.64121494771,0,0,
3018,3018,1.5090000,4961,1509,10060.1084,19167.7324,2.12651837623,1.7918873885,0,0,
3019,3019,1.5095000,4962,1510,10058.5459,19167.9707,0.316200702763,-0.893659956491,0,0,
3020,3020,1.5100000,4962,1510,10059.9873,19170.4961,1.3970313405,-2.93950039281,0,0,
3021,3021,1.5105000,4963,1511,10055.0596,19169.1738,-2.56899093696,-6.34532396593,0,0,
3022,3022,1.5110000,4963,1511,10060.9492,19167.0098,3.06546331879,-10.0248031547,0,0,
3023,3023,1.5115000,4964,1512,10058.5459,19173.3809,0.0927974212034,-3.94190629603,0,0,
3024,3024,1.5120000,4964,1512,10061.4307,19175.0645,3.021765569,-4.03483246283,0,0,
3025,3025,1.5125000,4965,1513,10060.5889,19172.4199,1.56942389238,-7.06979709027,0,0,
3026,3026,1.5130000,4965,1513,10060.2275,19175.1836,0.798106266235,-6.22829804188,0,0,
3027,3027,1.5135000,4966,1514,10057.584,19172.6602,-1.41132205283,-9.14697301213,0,0,
3028,3028,1.5140000,4966,1514,10061.4307,19176.5059,1.37121308394,-5.69848218864,0,0,
3029,3029,1.5145000,4967,1515,10063.3535,19173.6211,2.05658181673,-5.79992590792,0,0,
3030,3030,1.5150000,4967,1515,10062.5117,19177.3477,1.11800809577,-2.59416412999,0,0,
3031,3031,1.5155000,4968,1516,10063.3535,19179.1504,2.32776779828,-1.17999088533,0,0,
3032,3032,1.5160000,4968,1516,10061.6709,19180.7129,0.647102336736,-2.37551956911,0,0,
3033,3033,1.5165000,4969,1517,10062.5117,19178.5488,1.04891925026,-5.42148655729,0,0,
3034,3034,1.5170000,4969,1517,10063.2334,19182.877,0.757727565205,-3.38812708015,0,0,
3035,3035,1.5175000,4970,1518,10061.3096,19190.3301,-1.11761316164,1.76474175639,0,0,
3036,3036,1.5180000,4970,1518,10060.709,19192.6133,-2.18622353205,1.64173954907,0,0,
3037,3037,1.5185000,4971,1519,10059.2666,19200.1855,-3.21565239711,3.78417251995,0,0,
3038,3038,1.5190000,4971,1519,10060.3486,19207.5176,-1.66600749763,7.06534117798,0,0,
3039,3039,1.5195000,4972,1520,10062.7529,19213.5293,0.334178226149,7.52265396816,0,0,
3040,3040,1.5200000,4972,1520,10063.9541,19219.2988,0.96477289155,4.39494943875,0,0,
3041,3041,1.5205000,4973,1521,10065.0361,19217.8555,0.60016291506,-1.81065336996,0,0,
3042,3042,1.5210000,4973,1521,10066.96,19223.8652,1.35260183334,-0.0534046071231,0,0,
3043,3043,1.5215000,4974,1522,10067.3203,19226.752,1.97868166062,-0.585419445533,0,0,
3044,3044,1.5220000,4974,1522,10069.0029,19232.4004,3.38432945942,0.490478568325,0,0,
3045,3045,1.5225000,4975,1523,10063.9541,19242.6172,-0.790787946805,3.99160135332,0,0,
3046,3046,1.5230000,4975,1523,10064.3154,19251.2715,-1.22263784893,4.49751815263,0,0,
3047,3047,1.5235000,4976,1524,10063.5938,19244.4199,-1.52268268285,-8.47484580694,0,0,
3048,3048,1.5240000,4976,1524,10067.2002,19231.7988,0.936633951105,-20.433481023,0,0,
3049,3049,1.5245000,4977,1525,10067.3203,19226.2695,-1.01836064584,-25.1332221175,0,0,
3050,3050,1.5250000,4977,1525,10064.7959,19226.3906,-3.87752307183,-25.503202904,0,0,
3051,3051,1.5255000,4978,1526,10065.1562,19217.0137,-4.80122610298,-32.3381082089,0,0,
3052,3052,1.5260000,4978,1526,10068.8828,19205.5957,0.413714611511,-38.5466875027,0,0,
3053,3053,1.5265000,4979,1527,10069.9648,19184.4395,0.95843471597,-52.7583439592,0,0,
3054,3054,1.5270000,4979,1527,10076.2148,19171.2168,7.13847488708,-55.0554916808,0,0,
3055,3055,1.5275000,4980,1528,10075.374,19181.0742,3.82108252232,-37.526850488,0,0,
3056,3056,1.5280000,4980,1528,10073.21,19196.7012,1.31170765589,-18.0281957924,0,0,
3057,3057,1.5285000,4981,1529,10072.0078,19208.9609,-1.79764466004,-1.21944564509,0,0,
3058,3058,1.5290000,4981,1529,10071.7676,19214.8496,-2.56816203089,6.66715707503,0,0,
3059,3059,1.5295000,4982,1530,10070.2051,19215.332,-3.97495633621,5.9731582085,0,0,
3060,3060,1.5300000,4982,1530,10069.2432,19217.4941,-4.97182573863,5.22349626083,0,0,
3061,3061,1.5305000,4983,1531,10074.5322,19215.0918,0.634765785379,2.84073557365,0,0,
3062,3062,1.5310000,4983,1531,10073.3301,19217.9766,-1.86134211845,5.30989462918,0,0,
3063,3063,1.5315000,4984,1532,10072.7295,19221.2207,-2.61705935136,7.99674547792,0,0,
3064,3064,1.5320000,4984,1532,10076.8164,19222.1836,0.55360610287,8.26695648244,0,0,
3065,3065,1.5325000,4985,1533,10079.46,19223.625,1.9250043634,10.1317132168,0,0,
3066,3066,1.5330000,4985,1533,10083.1865,19223.7461,3.78751629154,8.86717640325,0,0,
3067,3067,1.5335000,4986,1534,10081.3838,19228.6738,1.30947665161,13.1962170703,0,0,
3068,3068,1.5340000,4986,1534,10080.3018,19233.7227,-1.78504234985,16.1891527228,0,0,
3069,3069,1.5345000,4987,1535,10083.7881,19238.4102,-0.253420537514,21.349690521,0,0,
3070,3070,1.5350000,4987,1535,10082.3457,19240.5742,-1.94106443241,20.5449231993,0,0,
3071,3071,1.5355000,4988,1536,10083.1865,19242.1367,-1.22045259791,19.8742076786,0,0,
3072,3072,1.5360000,4988,1536,10088.2354,19249.5898,2.70717602054,22.2721045689,0,0,
3073,3073,1.5365000,4989,1537,10091.9619,19248.0254,4.09058088488,18.0474266218,0,0,
3074,3074,1.5370000,4989,1537,10093.7646,19248.2676,3.16136652,14.2293586744,0,0,
3075,3075,1.5375000,4990,1538,10094.8467,19254.3965,2.56799690534,16.0651614659,0,0,
3076,3076,1.5380000,4990,1538,10090.8799,19261.8496,-2.80356029498,19.2914138891,0,0,
3077,3077,1.5385000,4991,1539,10094.9668,19269.1816,-0.116680267667,19.1437748227,0,0,
3078,3078,1.5390000,4991,1539,10096.5293,19271.707,-0.22770008698,16.4438174145,0,0,
3079,3079,1.5395000,4992,1540,10096.1689,19277.7168,-2.40160488872,16.3617190234,0,0,
3080,3080,1.5400000,4992,1540,10096.1689,19287.8145,-3.66036408398,16.9554685929,0,0,
3081,3081,1.5405000,4993,1541,10097.8516,19289.6172,-3.86610857791,13.5019774421,0,0,
3082,3082,1.5410000,4993,1541,10098.5732,19294.7852,-4.59788085757,12.6335533258,0,0,
3083,3083,1.5415000,4994,1542,10101.5781,19290.3379,-1.98468933271,5.02567738054,0,0,
3084,3084,1.5420000,4994,1542,10102.7803,19283.9668,-1.63260034462,-3.65673501512,0,0,
3085,3085,1.5425000,4995,1543,10106.626,19279.1582,2.04674317666,-10.7424966252,0,0,
3086,3086,1.5430000,4995,1543,10106.9873,19269.6621,0.0935222735361,-20.3469043321,0,0,
3087,3087,1.5435000,4996,1544,10106.8662,19266.418,-1.00089549314,-20.5090090481,0,0,
3088,3088,1.5440000,4996,1544,10105.3037,19267.3789,-4.40375752563,-13.3241666362,0,0,
3089,3089,1.5445000,4997,1545,10107.5879,19271.3457,-4.27395165845,-6.76743295397,0,0,
3090,3090,1.5450000,4997,1545,10108.5498,19270.3848,-4.06888549931,-7.36404961119,0,0,
3091,3091,1.5455000,4998,1546,10112.0352,19262.2109,-3.0893260293,-11.2758852278,0,0,
3092,3092,1.5460000,4998,1546,10107.3477,19263.291,-6.87349934958,-6.01445534908,0,0,
3093,3093,1.5465000,4999,1547,10105.5439,19266.2969,-8.21463818287,-0.0956268236767,0,0,
3094,3094,1.5470000,4999,1547,10110.4727,19268.3418,-3.26046452774,3.98639514742,0,0,
3095,3095,1.5475000,5000,1548,10112.7568,19264.6152,-2.07413602949,-1.50903440772,0,0,
3096,3096,1.5480000,5000,1548,10116.4834,19258.123,1.37924296323,-9.10346792956,0,0,
3097,3097,1.5485000,5001,1549,10113.2373,19252.1133,-3.06274298578,-11.3514512938,0,0,
3098,3098,1.5490000,5001,1549,10111.6748,19248.748,-4.59127205856,-10.1912292687,0,0,
3099,3099,1.5495000,5002,1550,10113.1172,19252.834,-2.85199212415,-4.19841183094,0,0,
3100,3100,1.5500000,5002,1550,10112.2764,19249.1074,-3.61352000685,-6.99577039943,0,0,
3101,3101,1.5505000,5003,1551,10111.4346,19247.9062,-4.10092883346,-4.71697935561,0,0,
3102,3102,1.5510000,5003,1551,10113.7178,19246.3438,-2.15283462125,-3.78708586033,0,0,
3103,3103,1.5515000,5004,1552,10108.0693,19264.6152,-6.36563007605,13.3806834372,0,0,
3104,3104,1.5520000,5004,1552,10107.3477,19281.082,-6.37162865616,25.91903334,0,0,
3105,3105,1.5525000,5005,1553,10102.6592,19285.6504,-9.09584944024,26.9165440002,0,0,
3106,3106,1.5530000,5005,1553,10103.1406,19279.7598,-7.04190277622,17.7114200648,0,0,
3107,3107,1.5535000,5006,1554,10103.1406,19271.9473,-4.13273278475,8.84518679053,0,0,
3108,3108,1.5540000,5006,1554,10107.1074,19261.1289,0.21290965766,-1.24151035066,0,0,
3109,3109,1.5545000,5007,1555,10107.9482,19260.5273,0.846750933363,1.57227812601,0,0,
3110,3110,1.5550000,5007,1555,10110.7139,19260.7676,4.70579591199,2.85655568945,0,0,
3111,3111,1.5555000,5008,1556,10113.7178,19252.7148,7.86070682814,-2.09387365971,0,0,
3112,3112,1.5560000,5008,1556,10112.1553,19251.6328,5.98608175711,-2.52729663795,0,0,
3113,3113,1.5565000,5009,1557,10109.6318,19250.9121,3.45272319623,0.189968386053,0,0,
3114,3114,1.5570000,5009,1557,10109.751,19256.2012,3.64410854933,5.72282744432,0,0,
3115,3115,1.5575000,5010,1558,10106.2656,19258.8457,1.76143260538,7.33423750079,0,0,
3116,3116,1.5580000,5010,1558,10107.708,19258.123,4.5840300898,6.37670212214,0,0,
3117,3117,1.5585000,5011,1559,10109.2705,19252.2324,6.09101280884,-0.422769267543,0,0,
3118,3118,1.5590000,5011,1559,10109.5107,19249.4688,6.52579624683,-1.18351264617,0,0,
3119,3119,1.5595000,5012,1560,10114.0791,19244.9004,10.2974036493,-4.02837981031,0,0,
3120,3120,1.5600000,5012,1560,10110.7139,19237.9297,6.96574860204,-10.5698010453,0,0,
3121,3121,1.5605000,5013,1561,10112.5166,19236.2461,7.69953985612,-7.39704661444,0,0,
3122,3122,1.5610000,5013,1561,10117.6846,19232.7598,11.2568954,-6.95811013777,0,0,
3123,3123,1.5615000,5014,1562,10116.7236,19228.4336,9.72565915592,-4.50416586622,0,0,
3124,3124,1.5620000,5014,1562,10118.6465,19216.1738,10.7721388949,-9.0361223105,0,0,
3125,3125,1.5625000,5015,1563,10117.5645,19203.0703,9.63493654271,-14.3595776164,0,0,
3126,3126,1.5630000,5015,1563,10118.166,19197.7832,8.91435591706,-11.3352431838,0,0,
3127,3127,1.5635000,5016,1564,10118.2861,19197.7832,8.62713277612,-3.54093880591,0,0,
3128,3128,1.5640000,5016,1564,10120.3291,19198.7441,8.98490770993,5.88253033082,0,0,
3129,3129,1.5645000,5017,1565,10116.2432,19201.8691,3.32982062598,13.2542907245,0,0,
3130,3130,1.5650000,5017,1565,10117.4443,19204.9941,4.10203100774,18.2622397964,0,0,
3131,3131,1.5655000,5018,1566,10114.7998,19204.873,0.137239898899,22.3870304028,0,0,
3132,3132,1.5660000,5018,1566,10116.1221,19198.7441,3.07111111463,19.5486712481,0,0,
3133,3133,1.5665000,5019,1567,10124.2959,19192.4941,9.82527926397,16.5156366871,0,0,
3134,3134,1.5670000,5019,1567,10128.0225,19187.2051,10.715952843,14.7713280852,0,0,
3135,3135,1.5675000,5020,1568,10128.624,19190.9316,8.52216307059,18.0538307251,0,0,
3136,3136,1.5680000,5020,1568,10128.2627,19203.6719,6.5593321939,27.2179042406,0,0,
3137,3137,1.5685000,5021,1569,10126.2197,19216.0527,3.32880909057,36.1738549685,0,0,
3138,3138,1.5690000,5021,1569,10122.7334,19226.2695,-0.349294732986,40.763285672,0,0,
3139,3139,1.5695000,5022,1570,10120.3291,19225.5488,-2.64114564707,32.4166490109,0,0,
3140,3140,1.5700000,5022,1570,10119.0068,19214.8496,-3.57239965987,16.8477767425,0,0,
3141,3141,1.5705000,5023,1571,10124.0557,19204.0332,0.828400476842,4.97506110528,0,0,
3142,3142,1.5710000,5023,1571,10128.7432,19196.2188,3.2294255712,-3.16401852513,0,0,
3143,3143,1.5715000,5024,1572,10131.9893,19196.9395,5.56085371205,-6.1596265657,0,0,
3144,3144,1.5720000,5024,1572,10130.4268,19199.9453,1.92159004915,-6.35723080288,0,0,
3145,3145,1.5725000,5025,1573,10133.4316,19202.9512,3.39149210746,-4.01614424762,0,0,
3146,3146,1.5730000,5025,1573,10132.4697,19206.5566,0.182960537355,-1.06495118004,0,0,
3147,3147,1.5735000,5026,1574,10134.5127,19206.918,1.08020000884,-1.00572171244,0,0,
3148,3148,1.5740000,5026,1574,10137.1572,19205.1152,0.369083814877,-2.87256987026,0,0,
3149,3149,1.5745000,5027,1575,10132.71,19205.8359,-5.91719005762,-2.25678271397,0,0,
3150,3150,1.5750000,5027,1575,10131.3877,19211.7246,-7.44834697927,0.57968158964,0,0,
3151,3151,1.5755000,5028,1576,10131.5088,19213.168,-7.67803285569,0.776450329826,0,0,
3152,3152,1.5760000,5028,1576,10134.5127,19210.7637,-5.32274131019,-5.4826235351,0,0,
3153,3153,1.5765000,5029,1577,10136.0762,19214.8496,-4.65632298093,-3.56513060073,0,0,
3154,3154,1.5770000,5029,1577,10137.0381,19214.9707,-5.03936625888,-7.82500534225,0,0,
3155,3155,1.5775000,5030,1578,10137.0381,19212.8066,-4.90908162103,-13.4778082629,0,0,
3156,3156,1.5780000,5030,1578,10137.999,19207.2773,-4.65131564819,-19.9244621676,0,0,
3157,3157,1.5785000,5031,1579,10140.1631,19203.1914,-4.24009128888,-24.5617360418,0,0,
3158,3158,1.5790000,5031,1579,10145.4521,19202.9512,-0.990347872417,-23.9470639638,0,0,
3159,3159,1.5795000,5032,1580,10144.6104,19199.8262,-4.17834306193,-26.0902469424,0,0,
3160,3160,1.5800000,5032,1580,10142.5674,19202.4707,-6.35261462465,-24.5979392022,0,0,
3161,3161,1.5805000,5033,1581,10148.6973,19203.1914,-2.93657337507,-22.6033649559,0,0,
3162,3162,1.5810000,5033,1581,10150.7412,19206.4355,-3.85156206361,-19.2868363553,0,0,
3163,3163,1.5815000,5034,1582,10145.3311,19213.0488,-9.08355230761,-11.7065581372,0,0,
3164,3164,1.5820000,5034,1582,10145.3311,19219.7793,-9.27917606596,-4.57374734971,0,0,
3165,3165,1.5825000,5035,1583,10141.3643,19227.832,-11.5803511426,1.06014629215,0,0,
3166,3166,1.5830000,5035,1583,10139.3213,19233.3613,-12.8264208231,2.33439978304,0,0,
3167,3167,1.5835000,5036,1584,10139.0811,19223.9863,-11.4619972762,-9.37731161686,0,0,
3168,3168,1.5840000,5036,1584,10141.6055,19220.1387,-8.93352835978,-12.9876569917,0,0,
3169,3169,1.5845000,5037,1585,10139.0811,19220.8613,-10.4995881375,-14.2605963545,0,0,
3170,3170,1.5850000,5037,1585,10147.375,19224.8281,-2.85561809215,-13.3802818072,0,0,
3171,3171,1.5855000,5038,1586,10148.2158,19222.0625,-3.18202135277,-15.2863721655,0,0,
3172,3172,1.5860000,5038,1586,10146.6533,19216.1738,-3.67202186891,-19.1354099368,0,0,
3173,3173,1.5865000,5039,1587,10146.7744,19213.8887,-4.62943878648,-19.4973183012,0,0,
3174,3174,1.5870000,5039,1587,10147.1348,19212.3262,-4.98840703601,-19.0982627168,0,0,
3175,3175,1.5875000,5040,1588,10147.1348,19217.4941,-5.07331553121,-16.5560037444,0,0,
3176,3176,1.5880000,5040,1588,10148.5771,19215.5723,-3.08409328765,-21.9047064575,0,0,
3177,3177,1.5885000,5041,1589,10149.8994,19210.8848,-1.32023068817,-26.1716425551,0,0,
3178,3178,1.5890000,5041,1589,10150.0195,19207.1582,-0.424246787272,-28.1386087666,0,0,
3179,3179,1.5895000,5042,1590,10148.3369,19207.8789,-1.42579384801,-25.677261849,0,0,
3180,3180,1.5900000,5042,1590,10147.2549,19210.2832,-1.83374341545,-20.2281658249,0,0,
3181,3181,1.5905000,5043,1591,10147.8555,19215.5723,-1.78038461785,-12.0926097949,0,0,
3182,3182,1.5910000,5043,1591,10148.457,19217.375,-2.21070505257,-9.151710081,0,0,
3183,3183,1.5915000,5044,1592,10147.8555,19220.2598,-1.84365206335,-9.62226508933,0,0,
3184,3184,1.5920000,5044,1592,10148.0967,19221.9434,-1.13768415766,-10.7157093742,0,0,
3185,3185,1.5925000,5045,1593,10142.8076,19218.457,-5.01469611752,-13.3838610111,0,0,
3186,3186,1.5930000,5045,1593,10142.2061,19208.8418,-4.34676461839,-19.5775136105,0,0,
3187,3187,1.5935000,5046,1594,10142.0859,19206.7969,-2.81480437475,-16.9449478706,0,0,
3188,3188,1.5940000,5046,1594,10142.9277,19201.9902,-2.17425359765,-16.0897885221,0,0,
3189,3189,1.5945000,5047,1595,10140.8838,19205.7148,-2.57305219199,-8.13693883685,0,0,
3190,3190,1.5950000,5047,1595,10137.5186,19204.873,-3.50965451061,-7.08515572782,0,0,
3191,3191,1.5955000,5048,1596,10135.4756,19209.9219,-3.40050126612,1.12427408257,0,0,
3192,3192,1.5960000,5048,1596,10135.2344,19218.457,-1.99745155798,9.08833240845,0,0,
3193,3193,1.5965000,5049,1597,10134.6338,19222.3027,-0.793107187516,12.3361194041,0,0,
3194,3194,1.5970000,5049,1597,10135.5947,19221.2207,1.3611566659,9.85039122501,0,0,
3195,3195,1.5975000,5050,1598,10137.6387,19213.5293,5.21661487764,2.88689620477,0,0,
3196,3196,1.5980000,5050,1598,10137.5186,19209.6816,5.97184070357,1.93433981537,0,0,
3197,3197,1.5985000,5051,1599,10136.3164,19198.3828,4.93802919835,-5.27857061776,0,0,
3198,3198,1.5990000,5051,1599,10134.1533,19190.0879,3.20471527465,-7.93096561397,0,0,
3199,3199,1.5995000,5052,1600,10133.9121,19195.1387,3.83658377841,1.35547012257,0,0,
3200,3200,1.6000000,5052,1600,10132.3496,19198.1426,4.64958100287,5.31376798271,0,0,
3201,3201,1.6005000,5053,1601,10131.9893,19196.459,3.8379559118,7.07331638128,0,0,
3202,3202,1.6010000,5053,1601,10129.9453,19200.666,2.31820675965,12.7259597715,0,0,
3203,3203,1.6015000,5054,1602,10129.9453,19198.2637,5.29446617653,13.2428916833,0,0,
3204,3204,1.6020000,5054,1602,10133.0713,19199.9453,9.01277721892,17.8886154402,0,0,
3205,3205,1.6025000,5055,1603,10132.8311,19201.2676,10.6582672464,20.421588089,0,0,
3206,3206,1.6030000,5055,1603,10129.3447,19204.873,8.08647687293,24.0121088874,0,0,
3207,3207,1.6035000,5056,1604,10128.1426,19214.7305,8.08999070512,34.0130243821,0,0,
3208,3208,1.6040000,5056,1604,10126.46,19221.2207,6.4237934247,39.2979903774,0,0,
3209,3209,1.6045000,5057,1605,10128.2627,19214.4902,8.95614292279,30.0964825164,0,0,
3210,3210,1.6050000,5057,1605,10127.9023,19210.7637,7.39233074286,23.7319167599,0,0,
3211,3211,1.6055000,5058,1606,10128.624,19210.5234,7.77078803652,24.590666027,0,0,
3212,3212,1.6060000,5058,1606,10126.9404,19208.7207,7.78000132871,24.4393327457,0,0,
3213,3213,1.6065000,5059,1607,10127.6611,19208.2402,7.78484630808,24.3016202898,0,0,
3214,3214,1.6070000,5059,1607,10127.9023,19205.5957,7.37117337241,22.0177239265,0,0,
3215,3215,1.6075000,5060,1608,10131.3877,19206.3164,9.92283658203,18.8557413324,0,0,
3216,3216,1.6080000,5060,1608,10128.1426,19207.2773,6.77769839696,16.0191993053,0,0,
3217,3217,1.6085000,5061,1609,10124.6572,19210.4043,4.11301725459,17.3521038037,0,0,
3218,3218,1.6090000,5061,1609,10126.9404,19209.2012,7.07017088271,14.7989687691,0,0,
3219,3219,1.6095000,5062,1610,10127.542,19205.3535,8.01716036058,9.69632444497,0,0,
3220,3220,1.6100000,5062,1610,10128.2627,19206.5566,8.4965707397,10.6127350149,0,0,
3221,3221,1.6105000,5063,1611,10127.1807,19207.998,6.13422513474,11.7842375494,0,0,
3222,3222,1.6110000,5063,1611,10126.3398,19211.3652,3.84058016568,13.8716692075,0,0,
3223,3223,1.6115000,5064,1612,10124.6572,19210.7637,2.66991140367,8.8508108572,0,0,
3224,3224,1.6120000,5064,1612,10120.9307,19216.6543,-0.435086383903,10.127416635,0,0,
3225,3225,1.6125000,5065,1613,10119.7285,19222.1836,-0.0827674648368,13.2091857164,0,0,
3226,3226,1.6130000,5065,1613,10121.5312,19221.9434,1.67388778638,12.2099352422,0,0,
3227,3227,1.6135000,5066,1614,10116.1221,19226.752,-2.53882933549,14.7562589518,0,0,
3228,3228,1.6140000,5066,1614,10117.6846,19225.5488,-1.67623455555,12.441667618,0,0,
3229,3229,1.6145000,5067,1615,10117.6846,19228.7949,-0.779829116089,12.3435758914,0,0,
3230,3230,1.6150000,5067,1615,10115.1611,19229.877,-1.68810429538,9.30195833136,0,0,
3231,3231,1.6155000,5068,1616,10114.1992,19228.1934,-1.71791545061,5.13964658646,0,0,
3232,3232,1.6160000,5068,1616,10112.877,19234.2031,-2.6224840392,5.85030340715,0,0,
3233,3233,1.6165000,5069,1617,10113.959,19236.127,-1.21735392274,4.07539259613,0,0,
3234,3234,1.6170000,5069,1617,10112.877,19236.4863,-2.31498489922,1.05221064613,0,0,
3235,3235,1.6175000,5070,1618,10111.7949,19243.6992,-2.49800415137,5.26559273491,0,0,
3236,3236,1.6180000,5070,1618,10109.8721,19248.5078,-3.49746937659,6.84390318595,0,0,
3237,3237,1.6185000,5071,1619,10109.0303,19248.748,-3.8830328979,4.74529051109,0,0,
3238,3238,1.6190000,5071,1619,10110.1123,19245.3809,-2.61437562371,-0.43453785489,0,0,
3239,3239,1.6195000,5072,1620,10109.1504,19245.623,-3.25815596414,-3.99730057431,0,0,
3240,3240,1.6200000,5072,1620,10105.4248,19242.7383,-4.75302524267,-10.9646760124,0,0,
3241,3241,1.6205000,5073,1621,10105.0635,19244.4199,-5.39197033316,-10.4918074897,0,0,
3242,3242,1.6210000,5073,1621,10105.0635,19243.8184,-4.95879963242,-13.5518140905,0,0,
3243,3243,1.6215000,5074,1622,10103.501,19241.1738,-4.21537082379,-15.6124958976,0,0,
3244,3244,1.6220000,5074,1622,10105.7852,19237.9297,-1.98709794581,-17.6865178561,0,0,
3245,3245,1.6225000,5075,1623,10105.4248,19236.6074,-0.668453239387,-18.3498420942,0,0,
3246,3246,1.6230000,5075,1623,10102.7803,19238.8906,-1.91241612952,-16.3803645359,0,0,
3247,3247,1.6235000,5076,1624,10103.501,19242.377,-0.385464648965,-12.9545427213,0,0,
3248,3248,1.6240000,5076,1624,10104.3428,19241.5352,-0.0218478783033,-12.7923715273,0,0,
3249,3249,1.6245000,5077,1625,10102.6592,19238.7715,-1.54116209325,-13.7705950655,0,0,
3250,3250,1.6250000,5077,1625,10102.54,19235.2852,-2.60045379633,-16.3338986536,0,0,
3251,3251,1.6255000,5078,1626,10104.583,19237.5684,-1.25335332631,-11.4184318469,0,0,
3252,3252,1.6260000,5078,1626,10102.1787,19233.4824,-2.03775575835,-11.6811399278,0,0,
3253,3253,1.6265000,5079,1627,10103.1406,19233.4824,-1.86144889712,-9.32116084444,0,0,
3254,3254,1.6270000,5079,1627,10102.4189,19231.3184,-2.98335353574,-8.81647878005,0,0,
3255,3255,1.6275000,5080,1628,10102.4189,19232.5215,-3.55746152432,-9.14823965358,0,0,
3256,3256,1.6280000,5080,1628,10101.0967,19234.2031,-3.6703262511,-9.16105672153,0,0,
3257,3257,1.6285000,5081,1629,10099.0537,19233.002,-4.1660554032,-10.086333647,0,0,
3258,3258,1.6290000,5081,1629,10097.1299,19232.7598,-4.989095054,-9.11325348329,0,0,
3259,3259,1.6295000,5082,1630,10098.333,19231.4395,-2.77273772605,-9.19148398422,0,0,
3260,3260,1.6300000,5082,1630,10103.0205,19228.0723,1.62003110575,-10.7303301025,0,0,
3261,3261,1.6305000,5083,1631,10102.8994,19228.1934,0.595236237487,-8.68821811938,0,0,
3262,3262,1.6310000,5083,1631,10101.3369,19229.877,-1.85807854211,-6.10899039642,0,0,
3263,3263,1.6315000,5084,1632,10100.9766,19233.8418,-1.58981523134,-4.01121618011,0,0,
3264,3264,1.6320000,5084,1632,10100.4961,19237.3281,-1.50719498825,-3.4941029308,0,0,
3265,3265,1.6325000,5085,1633,10098.6924,19241.6562,-2.28155865466,-0.230025478964,0,0,
3266,3266,1.6330000,5085,1633,10099.8955,19243.6992,-1.71349767708,2.67770003734,0,0,
3267,3267,1.6335000,5086,1634,10100.376,19253.5566,-0.46997681954,10.0890383034,0,0,
3268,3268,1.6340000,5086,1634,10097.8516,19262.4512,-4.17712803127,16.7172033622,0,0,
3269,3269,1.6345000,5087,1635,10096.0488,19260.4082,-5.11627384982,10.958043074,0,0,
3270,3270,1.6350000,5087,1635,10100.1357,19237.5684,-0.312334008505,-11.0095477678,0,0,
3271,3271,1.6355000,5088,1636,10098.6924,19212.2051,-1.63362266833,-29.3836318693,0,0,
3272,3272,1.6360000,5088,1636,10101.458,19202.3496,0.280411630309,-33.8126664264,0,0,
3273,3273,1.6365000,5089,1637,10100.9766,19198.3828,-1.09055068133,-30.220689811,0,0,
3274,3274,1.6370000,5089,1637,10104.7031,19201.9902,1.16188620215,-20.301244638,0,0,
3275,3275,1.6375000,5090,1638,10106.9873,19207.0371,2.29812974136,-10.6632401978,0,0,
3276,3276,1.6380000,5090,1638,10107.4678,19210.4043,1.65821636838,-3.1270558145,0,0,
3277,3277,1.6385000,5091,1639,10101.8184,19220.8613,-4.43533005153,10.180584507,0,0,
3278,3278,1.6390000,5091,1639,10093.4043,19231.3184,-11.8339032149,21.2454255294,0,0,
3279,3279,1.6395000,5092,1640,10091.9619,19235.6465,-11.6392428674,22.6952599,0,0,
3280,3280,1.6400000,5092,1640,10089.918,19237.4492,-10.310779165,20.8881420945,0,0,
3281,3281,1.6405000,5093,1641,10087.3936,19239.0117,-11.7193426925,20.1037913454,0,0,
3282,3282,1.6410000,5093,1641,10093.1631,19228.0723,-5.50769517195,8.21262505335,0,0,
3283,3283,1.6415000,5094,1642,10090.8799,19223.0254,-5.33390493598,5.24421014147,0,0,
3284,3284,1.6420000,5094,1642,10090.7598,19230.4766,-5.14346730259,12.9668980296,0,0,
3285,3285,1.6425000,5095,1643,10091,19236.6074,-2.7952702188,17.0386681581,0,0,
3286,3286,1.6430000,5095,1643,10093.0439,19226.1504,0.684211642522,5.59293136417,0,0,
3287,3287,1.6435000,5096,1644,10096.8896,19212.3262,4.2786395452,-6.02293798378,0,0,
3288,3288,1.6440000,5096,1644,10096.2891,19208.8418,2.80031483701,-5.51991251294,0,0,
3289,3289,1.6445000,5097,1645,10093.5244,19211.125,0.497048433662,0.278755011663,0,0,
3290,3290,1.6450000,5097,1645,10094.6064,19213.5293,0.674038394636,4.14603812989,0,0,
3291,3291,1.6455000,5098,1646,10091.2402,19215.332,-2.71131479892,7.47790548797,0,0,
3292,3292,1.6460000,5098,1646,10089.5576,19219.6582,-1.8373535043,13.7557989034,0,0,
3293,3293,1.6465000,5099,1647,10092.3223,19216.4121,0.499153104958,11.0946019722,0,0,
3294,3294,1.6470000,5099,1647,10097.6113,19208.5996,4.8396061474,5.61592529074,0,0,
3295,3295,1.6475000,5100,1648,10098.6924,19202.8301,4.58991003303,-0.632933389049,0,0,
3296,3296,1.6480000,5100,1648,10094.7266,19199.1035,1.62965674862,-4.27115700579,0,0,
3297,3297,1.6485000,5101,1649,10090.2783,19199.2246,-0.859323096401,-2.51109945755,0,0,
3298,3298,1.6490000,5101,1649,10084.8701,19202.8301,-3.99910837577,2.23806702643,0,0,
3299,3299,1.6495000,5102,1650,10082.7061,19203.0703,-4.01284697558,3.36940827756,0,0,
3300,3300,1.6500000,5102,1650,10086.793,19207.2773,0.452902747745,7.74420496998,0,0,
3301,3301,1.6505000,5103,1651,10084.3887,19216.1738,-0.777062888533,14.4947974303,0,0,
3302,3302,1.6510000,5103,1651,10078.499,19229.6348,-4.52956521046,22.6016993054,0,0,
3303,3303,1.6515000,5104,1652,10077.7783,19236.2461,-2.34226635061,21.136194504,0,0,
3304,3304,1.6520000,5104,1652,10079.2197,19238.5293,1.3435278933,15.3016937379,0,0,
3305,3305,1.6525000,5105,1653,10078.3789,19239.6113,2.99123904601,10.7018443031,0,0,
3306,3306,1.6530000,5105,1653,10080.0615,19233.1211,4.95459254102,2.5664317259,0,0,
3307,3307,1.6535000,5106,1654,10078.0186,19227.5918,4.79024704244,-5.65408140284,0,0,
3308,3308,1.6540000,5106,1654,10082.2256,19218.2168,8.43557960778,-13.9480702974,0,0,
3309,3309,1.6545000,5107,1655,10086.1924,19209.2012,12.1416976277,-19.9320212897,0,0,
3310,3310,1.6550000,5107,1655,10088.2354,19195.9785,13.072473489,-24.7110110456,0,0,
3311,3311,1.6555000,5108,1656,10093.1631,19198.0215,16.3350706855,-14.5762984668,0,0,
3312,3312,1.6560000,5108,1656,10093.5244,19204.9941,14.0165026217,-7.02171330584,0,0,
3313,3313,1.6565000,5109,1657,10086.4326,19214.0098,6.2707488479,1.07755741117,0,0,
3314,3314,1.6570000,5109,1657,10083.1865,19222.7832,2.37214423991,6.1701448158,0,0,
3315,3315,1.6575000,5110,1658,10084.8701,19221.1016,3.89955443918,1.30806244493,0,0,
3316,3316,1.6580000,5110,1658,10081.5039,19218.0957,1.33341184216,-2.9532804476,0,0,
3317,3317,1.6585000,5111,1659,10083.4268,19216.5332,4.1234864599,-5.42565843836,0,0,
3318,3318,1.6590000,5111,1659,10081.2637,19213.5293,3.24610932227,-8.27359664544,0,0,
3319,3319,1.6595000,5112,1660,10082.3457,19211.4844,4.24198811549,-10.5082140653,0,0,
3320,3320,1.6600000,5112,1660,10084.6299,19204.7539,7.20508718941,-16.0347865024,0,0,
3321,3321,1.6605000,5113,1661,10083.9082,19204.2734,5.29977402803,-14.2232364391,0,0,
3322,3322,1.6610000,5113,1661,10086.4326,19204.6348,5.25955029729,-10.5023334264,0,0,
3323,3323,1.6615000,5114,1662,10083.668,19205.5957,3.4152649822,-6.29747639587,0,0,
3324,3324,1.6620000,5114,1662,10080.4219,19204.6348,-0.330196688123,-6.37385290712,0,0,
3325,3325,1.6625000,5115,1663,10083.1865,19204.2734,2.85170887838,-6.33096632199,0,0,
3326,3326,1.6630000,5115,1663,10081.1436,19202.3496,1.21325002813,-5.56278584304,0,0,
3327,3327,1.6635000,5116,1664,10080.9033,19201.6289,0.477371583478,-3.02909181656,0,0,
3328,3328,1.6640000,5116,1664,10082.3457,19203.0703,1.36393859514,0.167954941372,0,0,
3329,3329,1.6645000,5117,1665,10081.3838,19200.4258,0.969887261866,-1.05227527091,0,0,
3330,3330,1.6650000,5117,1665,10079.7012,19197.6621,-1.47020609455,-2.88611884297,0,0,
3331,3331,1.6655000,5118,1666,10079.3408,19198.623,-1.60243659401,-0.617818136803,0,0,
3332,3332,1.6660000,5118,1666,10079.8213,19198.7441,0.40605922706,1.46233087963,0,0,
3333,3333,1.6665000,5119,1667,10078.3789,19200.5469,-1.90910841315,4.62498318823,0,0,
3334,3334,1.6670000,5119,1667,10081.2637,19198.8633,-0.376590567514,5.45143084433,0,0,
3335,3335,1.6675000,5120,1668,10078.7393,19198.623,-3.06300064319,4.13015921574,0,0,
3336,3336,1.6680000,5120,1668,10079.46,19200.4258,-0.663672246251,4.05468542991,0,0,
3337,3337,1.6685000,5121,1669,10076.9365,19205.2344,-1.06628793777,6.86103565043,0,0,
3338,3338,1.6690000,5121,1669,10079.2197,19206.3164,2.28772073266,5.74173688273,0,0,
3339,3339,1.6695000,5122,1670,10078.2588,19207.3984,1.56597820854,5.28612587087,0,0,
3340,3340,1.6700000,5122,1670,10078.1377,19207.998,0.00295603340426,3.99308597698,0,0,
3341,3341,1.6705000,5123,1671,10079.3408,19204.6348,1.113537406,-1.4377545045,0,0,
3342,3342,1.6710000,5123,1671,10078.2588,19201.9902,0.631300049854,-6.52190112695,0,0,
3343,3343,1.6715000,5124,1672,10077.7783,19202.3496,0.501495100648,-8.50841461892,0,0,
3344,3344,1.6720000,5124,1672,10079.8213,19202.3496,2.04398847141,-10.0390584965,0,0,
3345,3345,1.6725000,5125,1673,10078.2588,19200.7871,1.01419169371,-10.9384489325,0,0,
3346,3346,1.6730000,5125,1673,10079.5811,19201.0273,0.870303243487,-7.1177888461,0,0,
3347,3347,1.6735000,5126,1674,10080.4219,19197.3008,1.89584249467,-9.01407065701,0,0,
3348,3348,1.6740000,5126,1674,10078.0186,19196.8203,-2.02908450137,-5.91418987657,0,0,
3349,3349,1.6745000,5127,1675,10082.7061,19200.7871,1.36863502091,0.469876097693,0,0,
3350,3350,1.6750000,5127,1675,10079.2197,19201.5078,-2.53241861719,6.21291049651,0,0,
3351,3351,1.6755000,5128,1676,10078.0186,19201.3887,-4.01288347449,8.57337898479,0,0,
3352,3352,1.6760000,5128,1676,10075.0127,19201.5078,-6.67181870261,5.90754153078,0,0,
3353,3353,1.6765000,5129,1677,10080.542,19200.0664,-0.34295282286,2.33032909318,0,0,
3354,3354,1.6770000,5129,1677,10080.4219,19199.2246,-1.0261842877,-0.930896920943,0,0,
3355,3355,1.6775000,5130,1678,10082.2256,19200.666,-0.314399264743,-0.194677602857,0,0,
3356,3356,1.6780000,5130,1678,10079.2197,19202.4707,-2.58493142545,1.61664715472,0,0,
3357,3357,1.6785000,5131,1679,10080.1816,19199.2246,-1.62306349599,-1.36108589582,0,0,
3358,3358,1.6790000,5131,1679,10080.9033,19199.4648,-0.218765162861,-0.413572430557,0,0,
3359,3359,1.6795000,5132,1680,10079.8213,19200.1855,-1.8254034437,-0.00374290016015,0,0,
3360,3360,1.6800000,5132,1680,10078.2588,19201.5078,-2.72120362521,1.55191445457,0,0,
3361,3361,1.6805000,5133,1681,10073.5713,19208.7207,-6.84280027112,7.28967920049,0,0,
3362,3362,1.6810000,5133,1681,10075.7344,19207.8789,-5.89442269633,6.23175813625,0,0,
3363,3363,1.6815000,5134,1682,10077.0566,19200.3066,-2.82795141539,0.202623678785,0,0,
3364,3364,1.6820000,5134,1682,10081.0234,19198.8633,0.430354426314,-0.967973761296,0,0,
3365,3365,1.6825000,5135,1683,10081.9854,19197.0605,0.666678694394,-2.63332153363,0,0,
3366,3366,1.6830000,5135,1683,10077.417,19195.7383,-3.06780781738,-1.7447267729,0,0,
3367,3367,1.6835000,5136,1684,10082.1045,19194.416,0.44376937456,-0.482527702511,0,0,
3368,3368,1.6840000,5136,1684,10079.5811,19192.6133,-2.75086314488,-0.664814322233,0,0,
3369,3369,1.6845000,5137,1685,10080.1816,19188.2871,-1.69748485225,-2.50251860383,0,0,
3370,3370,1.6850000,5137,1685,10079.1006,19188.7676,-3.2875888147,-0.60380958078,0,0,
3371,3371,1.6855000,5138,1686,10078.0186,19192.373,-4.1532230459,3.43755212507,0,0,
3372,3372,1.6860000,5138,1686,10079.3408,19191.6504,-1.86548007849,4.05293211404,0,0,
3373,3373,1.6865000,5139,1687,10079.2197,19190.0879,-2.73636609992,3.69432805197,0,0,
3374,3374,1.6870000,5139,1687,10077.0566,19194.2949,-5.84951497417,9.543285997,0,0,
3375,3375,1.6875000,5140,1688,10079.1006,19196.9395,-3.61704106286,10.183367151,0,0,
3376,3376,1.6880000,5140,1688,10077.2969,19194.6562,-3.8805742901,5.76708013588,0,0,
3377,3377,1.6885000,5141,1689,10077.5371,19196.459,-1.61543981415,5.35161590894,0,0,
3378,3378,1.6890000,5141,1689,10074.7725,19191.7715,-3.13206689307,0.146926865587,0,0,
3379,3379,1.6895000,5142,1690,10077.0566,19185.6426,-0.275214413682,-4.70669687636,0,0,
3380,3380,1.6900000,5142,1690,10078.6191,19181.3145,0.0347325477596,-7.26321542433,0,0,
3381,3381,1.6905000,5143,1691,10081.5039,19176.627,2.18860487732,-9.61859671846,0,0,
3382,3382,1.6910000,5143,1691,10077.8975,19178.791,-0.56294340355,-6.8794329214,0,0,
3383,3383,1.6915000,5144,1692,10080.9033,19181.4355,2.31892588908,-4.9047522797,0,0,
3384,3384,1.6920000,5144,1692,10078.2588,19185.2812,-0.646206937943,-1.94812833031,0,0,
3385,3385,1.6925000,5145,1693,10076.4561,19185.2812,-1.17519720177,-1.17729129871,0,0,
3386,3386,1.6930000,5145,1693,10073.0898,19187.9258,-4.55694118799,3.66584972591,0,0,
3387,3387,1.6935000,5146,1694,10072.249,19184.7988,-3.78822188221,2.03533124422,0,0,
3388,3388,1.6940000,5146,1694,10071.8877,19187.084,-3.78178246283,6.02107270823,0,0,
3389,3389,1.6945000,5147,1695,10070.5654,19186.9629,-4.93111725629,6.63273622085,0,0,
3390,3390,1.6950000,5147,1695,10068.8828,19186.123,-4.63708526945,9.55720792122,0,0,
3391,3391,1.6955000,5148,1696,10072.7295,19185.2812,-0.32868847325,10.7264446526,0,0,
3392,3392,1.6960000,5148,1696,10073.3301,19187.084,0.835875915273,9.91993182188,0,0,
3393,3393,1.6965000,5149,1697,10073.4502,19190.9316,1.21067099899,10.9448394335,0,0,
