record_index,sequence,time_s,tick_ms,tick_elapsed_ms,ch1_raw_uV,ch2_raw_uV,ch1_filtered_uV,ch2_filtered_uV,sequence_gap_before,byte_offset_adjustment,imputed_fields
2000,2000,1.0000000,289430,1000,18163.6797,25666.9609,5.46208423322,20.0918482203,0,0,
2001,2001,1.0005000,289431,1001,18163.3184,25680.4219,3.39390598637,29.3870830787,0,0,
2002,2002,1.0010000,289431,1001,18165.6035,25680.0625,5.17671891357,25.8211229534,0,0,
2003,2003,1.0015000,289432,1002,18169.6895,25674.291,6.82924059543,17.0843698418,0,0,
2004,2004,1.0020000,289432,1002,18175.2188,25659.748,10.6589956838,0.283174223575,0,0,
2005,2005,1.0025000,289433,1003,18176.3008,25649.5312,9.34729388341,-10.13383746,0,0,
2006,2006,1.0030000,289433,1003,18183.6328,25657.584,12.6033496407,-3.45006069329,0,0,
2007,2007,1.0035000,289434,1004,18179.0645,25670.2051,5.69276539431,5.90174694252,0,0,
2008,2008,1.0040000,289434,1004,18180.2676,25680.0625,4.56498368464,13.3078715767,0,0,
2009,2009,1.0045000,289435,1005,18179.0645,25685.834,1.30957128931,15.5270817246,0,0,
2010,2010,1.0050000,289435,1005,18184.1152,25687.1543,3.576205834,13.2828799691,0,0,
2011,2011,1.0055000,289436,1006,18179.0645,25684.0293,-2.01902640169,9.18504375569,0,0,
2012,2012,1.0060000,289436,1006,18176.6621,25687.5156,-5.08507785533,12.1341773394,0,0,
2013,2013,1.0065000,289437,1007,18177.1426,25684.8691,-6.2728041872,6.89622382536,0,0,
2014,2014,1.0070000,289437,1007,18175.459,25681.7441,-8.07163297617,2.19492885945,0,0,
2015,2015,1.0075000,289438,1008,18170.5312,25681.0234,-12.6125686422,1.01772757851,0,0,
2016,2016,1.0080000,289438,1008,18169.0879,25683.1875,-12.5259996626,0.801621520735,0,0,
2017,2017,1.0085000,289439,1009,18172.334,25685.9531,-7.85216819629,-1.75951101271,0,0,
2018,2018,1.0090000,289439,1009,18176.541,25686.3125,-3.31667123418,-7.4856697678,0,0,
2019,2019,1.0095000,289440,1010,18174.8574,25683.5488,-4.37563052913,-12.6503957543,0,0,
2020,2020,1.0100000,289440,1010,18174.0176,25679.5801,-3.94171953099,-16.8957954126,0,0,
2021,2021,1.0105000,289441,1011,18177.7441,25674.7734,-0.907722230462,-18.7189252519,0,0,
2022,2022,1.0110000,289441,1011,18179.3066,25669.9668,0.240365185535,-20.7169127166,0,0,
2023,2023,1.0115000,289442,1012,18182.791,25667.5625,3.92811572588,-19.2585840279,0,0,
2024,2024,1.0120000,289442,1012,18179.5469,25670.9277,0.184373273516,-12.8080087262,0,0,
2025,2025,1.0125000,289443,1013,18180.5078,25671.5293,0.393284739834,-10.0588311493,0,0,
2026,2026,1.0130000,289443,1013,18183.2734,25669.4844,2.86899403963,-11.4334978481,0,0,
2027,2027,1.0135000,289444,1014,18180.3887,25672.0078,0.420252960661,-7.85426592702,0,0,
2028,2028,1.0140000,289444,1014,18180.8691,25672.0078,1.70821519871,-6.80704818129,0,0,
2029,2029,1.0145000,289445,1015,18182.6719,25673.0918,2.28952121301,-4.08883144076,0,0,
2030,2030,1.0150000,289445,1015,18180.2676,25671.7676,-0.57653742196,-5.41885865365,0,0,
2031,2031,1.0155000,289446,1016,18182.3105,25672.3691,0.524720712615,-5.14287103809,0,0,
2032,2032,1.0160000,289446,1016,18183.9941,25670.4453,0.937269772423,-6.23939827089,0,0,
2033,2033,1.0165000,289447,1017,18184.5957,25672.7285,1.81713644178,-4.13565344058,0,0,
2034,2034,1.0170000,289447,1017,18182.791,25673.4512,0.112141085969,-2.66118976561,0,0,
2035,2035,1.0175000,289448,1018,18187.2402,25674.1719,4.38431106125,-1.14718759021,0,0,
2036,2036,1.0180000,289448,1018,18183.6328,25672.4902,1.70655768326,-3.65028685106,0,0,
2037,2037,1.0185000,289449,1019,18186.3984,25676.4551,3.04660972166,-2.13820657062,0,0,
2038,2038,1.0190000,289449,1019,18185.4355,25676.0957,-0.346443791386,-4.87354762612,0,0,
2039,2039,1.0195000,289450,1020,18186.5176,25674.7734,-0.781298245932,-5.41201290188,0,0,
2040,2040,1.0200000,289450,1020,18190.2441,25677.6582,3.4282425759,-5.45933074794,0,0,
2041,2041,1.0205000,289451,1021,18190.2441,25681.3848,2.24881953303,-4.24167941769,0,0,
2042,2042,1.0210000,289451,1021,18193.8496,25679.7031,4.83576520486,-4.82539618054,0,0,
2043,2043,1.0215000,289452,1022,18193.9707,25682.8281,2.8318595356,-1.30387296792,0,0,
2044,2044,1.0220000,289452,1022,18200.7012,25678.1387,7.43929076697,-5.24423248337,0,0,
2045,2045,1.0225000,289453,1023,18200.3418,25673.4512,5.56050221102,-9.38210693595,0,0,
2046,2046,1.0230000,289453,1023,18207.5527,25670.4453,8.6019149716,-14.1087836081,0,0,
2047,2047,1.0235000,289454,1024,18206.3516,25673.0918,6.32455049625,-13.6720171457,0,0,
2048,2048,1.0240000,289454,1024,18207.5527,25675.1348,5.28744788011,-11.2998091438,0,0,
2049,2049,1.0245000,289455,1025,18208.3945,25677.0566,4.21603409874,-8.69407790076,0,0,
2050,2050,1.0250000,289455,1025,18211.6406,25675.6152,4.08964640709,-8.43225621145,0,0,
2051,2051,1.0255000,289456,1026,18216.209,25676.5762,7.26736777941,-4.0461001385,0,0,
2052,2052,1.0260000,289456,1026,18215.7285,25675.6152,4.57862331466,-2.06607042937,0,0,
2053,2053,1.0265000,289457,1027,18216.3281,25675.375,1.78843267484,-0.621928718046,0,0,
2054,2054,1.0270000,289457,1027,18214.4043,25677.7793,-1.5823347114,2.95514794467,0,0,
2055,2055,1.0275000,289458,1028,18218.4922,25680.5449,0.55977627337,6.40722969844,0,0,
2056,2056,1.0280000,289458,1028,18220.1738,25677.8984,0.239378961769,3.14827673682,0,0,
2057,2057,1.0285000,289459,1029,18224.9824,25677.7793,2.10425345292,0.315414626697,0,0,
2058,2058,1.0290000,289459,1029,18225.4629,25679.5801,-0.296102394522,-1.23579467498,0,0,
2059,2059,1.0295000,289460,1030,18229.5508,25678.0176,1.53118562873,-3.01865668161,0,0,
2060,2060,1.0300000,289460,1030,18228.709,25677.1777,-0.838278377738,-2.91640940679,0,0,
2061,2061,1.0305000,289461,1031,18232.7969,25679.4609,-0.479499770372,1.60168717429,0,0,
2062,2062,1.0310000,289461,1031,18233.7578,25678.1387,-2.1227921472,1.75393050553,0,0,
2063,2063,1.0315000,289462,1032,18236.7637,25679.8223,-1.22368611362,4.59558614568,0,0,
2064,2064,1.0320000,289462,1032,18234.4785,25676.0957,-4.71853614035,1.82201902809,0,0,
2065,2065,1.0325000,289463,1033,18237.123,25681.9863,-4.40861766469,7.51729538835,0,0,
2066,2066,1.0330000,289463,1033,18240.248,25681.625,-3.41585334586,6.14975630486,0,0,
2067,2067,1.0335000,289464,1034,18243.4941,25681.3848,-1.50796912729,4.99867804063,0,0,
2068,2068,1.0340000,289464,1034,18240.6094,25683.5488,-5.11369563919,6.45806170548,0,0,
2069,2069,1.0345000,289465,1035,18243.2539,25683.4277,-4.97260187398,6.26207896089,0,0,
2070,2070,1.0350000,289465,1035,18244.3359,25682.1074,-5.35756935447,4.17145105255,0,0,
2071,2071,1.0355000,289466,1036,18245.2969,25679.4609,-6.64628855827,0.848660197572,0,0,
2072,2072,1.0360000,289466,1036,18248.4238,25678.9824,-5.98588947234,0.882919268543,0,0,
2073,2073,1.0365000,289467,1037,18247.0996,25679.8223,-7.69245854786,0.914077374644,0,0,
2074,2074,1.0370000,289467,1037,18245.1777,25679.2207,-9.42980137923,0.848852135686,0,0,
2075,2075,1.0375000,289468,1038,18246.8594,25676.0957,-8.35288170218,-0.959673231212,0,0,
2076,2076,1.0380000,289468,1038,18253.5918,25676.0957,-1.62011761298,-0.845425712442,0,0,
2077,2077,1.0385000,289469,1039,18254.4316,25673.3301,-3.30452299924,-4.68410054528,0,0,
2078,2078,1.0390000,289469,1039,18254.4316,25670.8066,-5.8277471031,-7.08718800305,0,0,
2079,2079,1.0395000,289470,1040,18254.0723,25673.0918,-7.90138884384,-2.88747993815,0,0,
2080,2080,1.0400000,289470,1040,18257.1973,25669.6035,-5.15288631,-7.16724900131,0,0,
2081,2081,1.0405000,289471,1041,18255.0332,25673.5703,-7.69744355159,-4.11516784841,0,0,
2082,2082,1.0410000,289471,1041,18256.2363,25676.4551,-6.93911433241,0.709791348581,0,0,
2083,2083,1.0415000,289472,1042,18257.918,25672.1309,-6.16275877517,-1.88610200347,0,0,
2084,2084,1.0420000,289472,1042,18261.8848,25675.8535,-3.88049337682,3.5485958325,0,0,
2085,2085,1.0425000,289473,1043,18258.6387,25680.6641,-6.35043169669,7.97632629907,0,0,
2086,2086,1.0430000,289473,1043,18256.957,25681.625,-9.27233409299,5.74891081896,0,0,
2087,2087,1.0435000,289474,1044,18258.7598,25678.9824,-5.3878487428,-0.392306180603,0,0,
2088,2088,1.0440000,289474,1044,18259.3613,25674.8926,-4.21836230891,-4.54763445297,0,0,
2089,2089,1.0445000,289475,1045,18259.7207,25673.9316,-3.07920517068,-4.74224927931,0,0,
2090,2090,1.0450000,289475,1045,18259.7207,25673.5703,-3.53421356649,-3.14793858807,0,0,
2091,2091,1.0455000,289476,1046,18259.2402,25673.5703,-2.44715862842,-0.199115905374,0,0,
2092,2092,1.0460000,289476,1046,18259.6016,25674.7734,-0.659113905893,3.45333703454,0,0,
2093,2093,1.0465000,289477,1047,18259,25673.8125,-1.08844660998,3.89777920929,0,0,
2094,2094,1.0470000,289477,1047,18262.9668,25674.291,3.63223539878,5.16587193957,0,0,
2095,2095,1.0475000,289478,1048,18260.082,25673.9316,1.03712533739,5.66709524367,0,0,
2096,2096,1.0480000,289478,1048,18258.8809,25675.9766,0.821456482301,7.59564034423,0,0,
2097,2097,1.0485000,289479,1049,18258.1582,25675.4941,0.416625595438,4.84207469769,0,0,
2098,2098,1.0490000,289479,1049,18257.918,25684.0293,1.12370008734,8.85922046234,0,0,
2099,2099,1.0495000,289480,1050,18258.0391,25691.1191,2.28602056261,13.0219340141,0,0,
2100,2100,1.0500000,289480,1050,18257.4375,25690.0391,3.78582284723,10.1094736422,0,0,
2101,2101,1.0505000,289481,1051,18253.5918,25695.9297,0.380727753986,14.1163962889,0,0,
2102,2102,1.0510000,289481,1051,18254.3125,25701.6973,2.55436633963,17.0624376677,0,0,
2103,2103,1.0515000,289482,1052,18253.832,25704.4629,3.6428517225,16.364136106,0,0,
2104,2104,1.0520000,289482,1052,18254.1934,25706.1465,6.28326149656,14.9063732677,0,0,
2105,2105,1.0525000,289483,1053,18255.7559,25701.8203,7.9554612266,7.06492637548,0,0,
2106,2106,1.0530000,289483,1053,18259,25693.4043,10.8923577848,-2.37647001921,0,0,
2107,2107,1.0535000,289484,1054,18263.6895,25685.2324,15.1822973422,-9.87899109194,0,0,
2108,2108,1.0540000,289484,1054,18264.1699,25676.9375,15.9963662759,-15.8674929374,0,0,
2109,2109,1.0545000,289485,1055,18270.7793,25678.3809,19.3633450295,-11.7401068712,0,0,
2110,2110,1.0550000,289485,1055,18266.9336,25680.1816,14.2325042234,-8.42512962935,0,0,
2111,2111,1.0555000,289486,1056,18265.8516,25682.7051,11.448157778,-5.22492113815,0,0,
2112,2112,1.0560000,289486,1056,18262.7266,25680.9043,6.98551114001,-5.64770805022,0,0,
2113,2113,1.0565000,289487,1057,18267.1738,25682.3457,11.200107694,-4.34124372308,0,0,
2114,2114,1.0570000,289487,1057,18268.8574,25683.5488,12.3186353436,-2.32108179273,0,0,
2115,2115,1.0575000,289488,1058,18269.6973,25679.7031,11.2927564055,-4.09458184156,0,0,
2116,2116,1.0580000,289488,1058,18268.8574,25680.6641,9.41956106314,-2.87567593673,0,0,
2117,2117,1.0585000,289489,1059,18271.0215,25676.3359,9.26235433828,-7.03362070004,0,0,
2118,2118,1.0590000,289489,1059,18271.3809,25677.1777,7.21877450253,-5.81861983873,0,0,
2119,2119,1.0595000,289490,1060,18271.502,25680.3027,5.40836119532,-2.01454818149,0,0,
2120,2120,1.0600000,289490,1060,18269.9395,25682.8281,3.0604201562,-0.914026307236,0,0,
2121,2121,1.0605000,289491,1061,18268.8574,25684.2715,1.86763953302,-1.86745025366,0,0,
2122,2122,1.0610000,289491,1061,18271.0215,25684.2715,2.84113375,-1.10293477608,0,0,
2123,2123,1.0615000,289492,1062,18267.7754,25682.8281,-1.21061506881,-1.00082998083,0,0,
2124,2124,1.0620000,289492,1062,18272.9434,25678.5,1.64378522153,-3.78276963724,0,0,
2125,2125,1.0625000,289493,1063,18276.1895,25685.1113,4.59407024247,2.06413805565,0,0,
2126,2126,1.0630000,289493,1063,18278.7129,25682.9473,4.07742650042,-1.7441517696,0,0,
2127,2127,1.0635000,289494,1064,18273.666,25687.5156,-0.640720056364,0.164276583827,0,0,
2128,2128,1.0640000,289494,1064,18274.5059,25696.2891,-0.498783955004,6.83804337702,0,0,
2129,2129,1.0645000,289495,1065,18274.9863,25695.9297,-0.536344869652,4.58029288418,0,0,
2130,2130,1.0650000,289495,1065,18271.7422,25695.5684,-4.57588308796,3.44960364528,0,0,
2131,2131,1.0655000,289496,1066,18269.0977,25699.5371,-5.93948974888,6.87552496682,0,0,
2132,2132,1.0660000,289496,1066,18270.9004,25697.7324,-3.50750851108,4.81101882241,0,0,
2133,2133,1.0665000,289497,1067,18272.7031,25695.3281,-2.39297704567,2.30220992353,0,0,
2134,2134,1.0670000,289497,1067,18271.9824,25696.1699,-3.34423112761,2.39484709261,0,0,
2135,2135,1.0675000,289498,1068,18270.6602,25697.4922,-4.23694135428,3.06574912571,0,0,
2136,2136,1.0680000,289498,1068,18274.1465,25699.1738,-1.05451736687,3.11291181054,0,0,
2137,2137,1.0685000,289499,1069,18272.7031,25700.2559,-3.21677123123,1.24902693007,0,0,
2138,2138,1.0690000,289499,1069,18275.1074,25707.2285,-1.57553408689,2.15589792212,0,0,
2139,2139,1.0695000,289500,1070,18274.8672,25710.3535,-2.38559979655,1.70937135075,0,0,
2140,2140,1.0700000,289500,1070,18276.0684,25710.3535,-0.997245754458,0.533611331424,0,0,
2141,2141,1.0705000,289501,1071,18275.4688,25711.0762,-2.55168447088,-0.302982753239,0,0,
2142,2142,1.0710000,289501,1071,18276.3105,25711.4355,-2.60463022143,-1.20272358758,0,0,
2143,2143,1.0715000,289502,1072,18272.7031,25721.4121,-5.95023169711,6.06350575625,0,0,
2144,2144,1.0720000,289502,1072,18271.502,25731.2676,-6.05190065104,12.0824709109,0,0,
2145,2145,1.0725000,289503,1073,18275.1074,25738.3594,-3.61701232717,14.1949329435,0,0,
2146,2146,1.0730000,289503,1073,18276.6699,25740.2832,-3.43833732005,12.310414464,0,0,
2147,2147,1.0735000,289504,1074,18275.8281,25735.5957,-4.85480290336,4.99055693419,0,0,
2148,2148,1.0740000,289504,1074,18277.1504,25735.7168,-2.84192962104,2.76182892069,0,0,
2149,2149,1.0745000,289505,1075,18279.7949,25728.0234,-2.83278940866,-6.47061911239,0,0,
2150,2150,1.0750000,289505,1075,18277.5117,25724.7793,-4.43769676884,-10.7747352409,0,0,
2151,2151,1.0755000,289506,1076,18284.7246,25716.4844,0.895949175455,-18.4852671073,0,0,
2152,2152,1.0760000,289506,1076,18286.7676,25709.5137,0.882230960942,-22.3198390832,0,0,
2153,2153,1.0765000,289507,1077,18293.2578,25701.6973,4.47739355109,-27.0877803636,0,0,
2154,2154,1.0770000,289507,1077,18294.3398,25692.9238,3.34138432175,-30.2787870292,0,0,
2155,2155,1.0775000,289508,1078,18289.1719,25690.1582,-3.50148397019,-26.0581778816,0,0,
2156,2156,1.0780000,289508,1078,18286.2871,25704.3438,-6.55512467198,-10.2790104536,0,0,
2157,2157,1.0785000,289509,1079,18287.0078,25720.4512,-7.31387690322,4.33453696422,0,0,
2158,2158,1.0790000,289509,1079,18290.0137,25722.1328,-5.98854371802,3.76580192364,0,0,
2159,2159,1.0795000,289510,1080,18293.0176,25719.7285,-4.74537435812,0.288153347708,0,0,
2160,2160,1.0800000,289510,1080,18290.8535,25718.2871,-7.18494819537,-2.81547417209,0,0,
2161,2161,1.0805000,289511,1081,18289.8926,25712.7578,-7.91098208647,-9.1129276037,0,0,
2162,2162,1.0810000,289511,1081,18290.1328,25713.8379,-8.49464113723,-6.26615233104,0,0,
2163,2163,1.0815000,289512,1082,18292.1758,25726.5801,-6.85279254453,6.3364900578,0,0,
2164,2164,1.0820000,289512,1082,18291.334,25740.7656,-9.70557204042,17.5777083824,0,0,
2165,2165,1.0825000,289513,1083,18292.5371,25742.209,-8.10025013354,13.5841014391,0,0,
2166,2166,1.0830000,289513,1083,18292.5371,25739.8027,-9.27754062849,7.33553226356,0,0,
2167,2167,1.0835000,289514,1084,18290.252,25737.6406,-9.13942385003,0.866421004565,0,0,
2168,2168,1.0840000,289514,1084,18292.8965,25746.1738,-6.47851450062,4.96834169448,0,0,
2169,2169,1.0845000,289515,1085,18288.5703,25753.2656,-9.63192427184,8.40509649724,0,0,
2170,2170,1.0850000,289515,1085,18290.6133,25745.8125,-6.9982548282,-0.0952657617587,0,0,
2171,2171,1.0855000,289516,1086,18295.0605,25743.1699,-1.80714820703,-3.02891915562,0,0,
2172,2172,1.0860000,289516,1086,18295.7832,25740.6426,-1.4101780002,-4.28749227254,0,0,
2173,2173,1.0865000,289517,1087,18292.0566,25743.0488,-5.30942755733,-1.32216146036,0,0,
2174,2174,1.0870000,289517,1087,18296.3828,25745.334,-1.25763621542,0.132339150152,0,0,
2175,2175,1.0875000,289518,1088,18295.541,25744.3691,-1.7312891798,-1.14661742312,0,0,
2176,2176,1.0880000,289518,1088,18296.5039,25740.7656,-1.37911890832,-4.85324484498,0,0,
2177,2177,1.0885000,289519,1089,18295.0605,25737.0391,-2.72000325932,-8.74423844876,0,0,
2178,2178,1.0890000,289519,1089,18290.8535,25735.5957,-6.3296721427,-12.5755052811,0,0,
2179,2179,1.0895000,289520,1090,18291.5762,25733.1934,-4.61009387301,-13.8586011819,0,0,
2180,2180,1.0900000,289520,1090,18295.4219,25734.3926,-0.0697152854915,-9.67151454411,0,0,
2181,2181,1.0905000,289521,1091,18300.1094,25726.5801,3.70046831696,-13.6857990109,0,0,
2182,2182,1.0910000,289521,1091,18300.4707,25731.2676,3.05607577845,-6.27167089077,0,0,
2183,2183,1.0915000,289522,1092,18298.5469,25738.7207,1.6819454457,0.845436981743,0,0,
2184,2184,1.0920000,289522,1092,18298.3066,25760.1172,2.05794433804,18.3330061857,0,0,
2185,2185,1.0925000,289523,1093,18299.0273,25779.9512,1.25996018822,31.2247943605,0,0,
2186,2186,1.0930000,289523,1093,18299.8691,25784.2793,0.997767726402,30.2008279673,0,0,
2187,2187,1.0935000,289524,1094,18303.3555,25778.5078,3.67367518124,21.706101514,0,0,
2188,2188,1.0940000,289524,1094,18300.1094,25779.5918,1.15393321342,19.2266565425,0,0,
2189,2189,1.0945000,289525,1095,18297.1035,25781.752,-2.95009880456,18.2573186606,0,0,
2190,2190,1.0950000,289525,1095,18296.0215,25775.1426,-1.84933360911,8.94474579022,0,0,
2191,2191,1.0955000,289526,1096,18296.3828,25764.5645,-2.05154556953,-1.3245601784,0,0,
2192,2192,1.0960000,289526,1096,18295.4219,25753.9863,-2.30915867162,-8.96810294004,0,0,
2193,2193,1.0965000,289527,1097,18299.2676,25730.4277,0.891785041816,-26.3406019793,0,0,
2194,2194,1.0970000,289527,1097,18299.2676,25713.3594,1.77506854147,-33.6284126658,0,0,
2195,2195,1.0975000,289528,1098,18295.9023,25708.6719,0.319543727478,-28.6722079141,0,0,
2196,2196,1.0980000,289528,1098,18294.459,25710.3535,0.960308185848,-23.0843800426,0,0,
2197,2197,1.0985000,289529,1099,18295.6621,25716.4844,2.14593920708,-14.5869277578,0,0,
2198,2198,1.0990000,289529,1099,18296.0215,25726.9434,2.17566549513,-1.92961003876,0,0,
2199,2199,1.0995000,289530,1100,18290.1328,25741.9668,-2.60937742883,13.074752451,0,0,
2200,2200,1.1000000,289530,1100,18294.2207,25749.5391,3.20444796144,18.0066119667,0,0,
2201,2201,1.1005000,289531,1101,18297.5859,25750.1406,7.35179823422,16.3367469191,0,0,
2202,2202,1.1010000,289531,1101,18296.7441,25752.7832,6.26634232247,17.223140092,0,0,
2203,2203,1.1015000,289532,1102,18293.2578,25751.7031,3.43183205749,13.3704190454,0,0,
2204,2204,1.1020000,289532,1102,18297.7051,25752.0625,6.56112670709,11.0426407987,0,0,
2205,2205,1.1025000,289533,1103,18298.9082,25746.5332,7.81568860887,4.44578867263,0,0,
2206,2206,1.1030000,289533,1103,18296.7441,25747.2559,5.00059846194,5.06191413829,0,0,
2207,2207,1.1035000,289534,1104,18293.3789,25748.0957,4.38298021999,4.39463905815,0,0,
2208,2208,1.1040000,289534,1104,18289.6523,25748.9375,1.57019125153,2.6459966807,0,0,
2209,2209,1.1045000,289535,1105,18296.0215,25750.2598,8.84692510129,2.99895281744,0,0,
2210,2210,1.1050000,289535,1105,18291.334,25745.8125,4.57010455175,1.53937174927,0,0,
2211,2211,1.1055000,289536,1106,18294.3398,25746.2949,7.74662970476,3.60783964564,0,0,
2212,2212,1.1060000,289536,1106,18291.5762,25748.2168,5.56897234308,7.15508364248,0,0,
2213,2213,1.1065000,289537,1107,18295.1816,25746.2949,9.13411303722,5.93979594421,0,0,
2214,2214,1.1070000,289537,1107,18292.8965,25749.5391,6.30213563748,8.377204802,0,0,
2215,2215,1.1075000,289538,1108,18288.3301,25750.1406,3.30565712201,8.73450097821,0,0,
2216,2216,1.1080000,289538,1108,18289.5312,25750.3809,4.64265948116,8.53584288991,0,0,
2217,2217,1.1085000,289539,1109,18291.2148,25746.6543,6.69240174625,4.29109322357,0,0,
2218,2218,1.1090000,289539,1109,18289.8926,25739.6816,5.99446527776,-4.39346392664,0,0,
2219,2219,1.1095000,289540,1110,18293.6191,25737.1582,9.00861588045,-5.74906853963,0,0,
2220,2220,1.1100000,289540,1110,18287.9688,25738.7207,3.63031082919,-2.46066237475,0,0,
2221,2221,1.1105000,289541,1111,18287.248,25744.25,2.62027938271,4.57985637503,0,0,
2222,2222,1.1110000,289541,1111,18287.3691,25746.7754,3.05051041395,5.80741890441,0,0,
2223,2223,1.1115000,289542,1112,18291.5762,25744.3691,7.82567037794,1.17462580527,0,0,
2224,2224,1.1120000,289542,1112,18293.8594,25740.4043,9.78552014209,-5.80450316365,0,0,
2225,2225,1.1125000,289543,1113,18292.1758,25738.7207,6.31584637837,-8.93293282085,0,0,
2226,2226,1.1130000,289543,1113,18291.2148,25734.5137,4.15628887026,-9.42531448884,0,0,
2227,2227,1.1135000,289544,1114,18289.8926,25727.9043,2.17117247709,-9.06122160439,0,0,
2228,2228,1.1140000,289544,1114,18292.7773,25725.7402,5.61826994407,-6.69214285981,0,0,
2229,2229,1.1145000,289545,1115,18293.0176,25727.541,4.23977610082,-1.15100791993,0,0,
2230,2230,1.1150000,289545,1115,18289.4121,25732.9512,1.76026780944,6.86576728202,0,0,
2231,2231,1.1155000,289546,1116,18289.7715,25735.7168,0.761334170748,12.22998574,0,0,
2232,2232,1.1160000,289546,1116,18287.0078,25742.9277,-1.73171999515,20.3765915304,0,0,
2233,2233,1.1165000,289547,1117,18286.2871,25746.7754,-3.3742650573,25.1655992104,0,0,
2234,2234,1.1170000,289547,1117,18284.7246,25748.3379,-3.66277181965,26.2421002931,0,0,
2235,2235,1.1175000,289548,1118,18286.6465,25744.7324,-0.126968716855,20.3396979706,0,0,
2236,2236,1.1180000,289548,1118,18284.8438,25747.1348,-0.517523106988,15.4655635701,0,0,
2237,2237,1.1185000,289549,1119,18284.6035,25738.6016,-1.28663601481,1.36625411023,0,0,
2238,2238,1.1190000,289549,1119,18289.1719,25729.7051,1.82484196877,-9.69334068195,0,0,
2239,2239,1.1195000,289550,1120,18286.8887,25727.541,-0.145801096226,-13.1485431781,0,0,
2240,2240,1.1200000,289550,1120,18287.9688,25722.6152,0.424439622022,-17.641747178,0,0,
2241,2241,1.1205000,289551,1121,18288.3301,25725.7402,0.335836508533,-13.2578729971,0,0,
2242,2242,1.1210000,289551,1121,18286.2871,25730.666,-1.86432209236,-7.86105750388,0,0,
2243,2243,1.1215000,289552,1122,18280.7559,25728.9844,-5.90919742784,-9.26227861354,0,0,
2244,2244,1.1220000,289552,1122,18285.084,25737.6406,-3.30306960119,-2.41405512955,0,0,
2245,2245,1.1225000,289553,1123,18280.998,25737.5176,-6.36838521784,-2.97116420511,0,0,
2246,2246,1.1230000,289553,1123,18282.6797,25738.8418,-4.42331723118,-2.64769090976,0,0,
2247,2247,1.1235000,289554,1124,18282.9199,25738.6016,-1.72912911234,-4.73288343718,0,0,
2248,2248,1.1240000,289554,1124,18283.6426,25743.7715,-0.779014869991,-3.05140812477,0,0,
2249,2249,1.1245000,289555,1125,18280.2754,25740.7656,-3.96680828505,-7.36442993536,0,0,
2250,2250,1.1250000,289555,1125,18281.4785,25743.7715,-1.93545982698,-2.72963798775,0,0,
2251,2251,1.1255000,289556,1126,18282.0801,25741.8457,-1.75703382011,-4.47996017397,0,0,
2252,2252,1.1260000,289556,1126,18284.7246,25744.4922,0.923247359661,-1.90884112147,0,0,
2253,2253,1.1265000,289557,1127,18283.041,25742.8066,-1.38418752832,-3.50594549309,0,0,
2254,2254,1.1270000,289557,1127,18286.5273,25740.1641,1.16245535456,-7.01815398136,0,0,
2255,2255,1.1275000,289558,1128,18280.7559,25737.5176,-3.04839335147,-8.88177712986,0,0,
2256,2256,1.1280000,289558,1128,18279.916,25736.5566,-4.15413435755,-8.94680563132,0,0,
2257,2257,1.1285000,289559,1129,18279.3145,25747.375,-4.4419384742,0.613181553315,0,0,
2258,2258,1.1290000,289559,1129,18277.5117,25753.1465,-5.01711715382,2.57179878719,0,0,
2259,2259,1.1295000,289560,1130,18274.748,25760.1172,-7.39263841017,5.72981214226,0,0,
2260,2260,1.1300000,289560,1130,18274.5059,25760.2363,-5.73669869547,2.56494011004,0,0,
2261,2261,1.1305000,289561,1131,18276.0684,25760.5996,-4.20408441336,0.249651252603,0,0,
2262,2262,1.1310000,289561,1131,18277.6309,25747.9766,-2.62265917659,-13.283155474,0,0,
2263,2263,1.1315000,289562,1132,18279.7949,25742.4473,-0.613771420818,-18.7403577115,0,0,
2264,2264,1.1320000,289562,1132,18279.4355,25737.5176,-0.913633294971,-23.706778925,0,0,
2265,2265,1.1325000,289563,1133,18277.5117,25734.9941,-3.12332793599,-25.3368972453,0,0,
2266,2266,1.1330000,289563,1133,18276.5488,25732.7109,-4.09571596556,-22.5185810805,0,0,
2267,2267,1.1335000,289564,1134,18276.6699,25739.0801,-3.806482927,-10.499564157,0,0,
2268,2268,1.1340000,289564,1134,18276.0684,25739.5625,-3.45444728292,-7.48981457896,0,0,
2269,2269,1.1345000,289565,1135,18276.9102,25731.5098,-3.04605907041,-12.2423973363,0,0,
2270,2270,1.1350000,289565,1135,18275.1074,25734.3926,-2.72684621999,-7.12488893737,0,0,
2271,2271,1.1355000,289566,1136,18273.1855,25735.1152,-4.89127561856,-3.2282708692,0,0,
2272,2272,1.1360000,289566,1136,18274.5059,25734.9941,-2.73848658657,-1.01867086219,0,0,
2273,2273,1.1365000,289567,1137,18274.1465,25727.4219,-3.68519086572,-3.53015143341,0,0,
2274,2274,1.1370000,289567,1137,18275.5879,25722.1328,-1.46939716163,-3.50266132872,0,0,
2275,2275,1.1375000,289568,1138,18274.748,25720.0918,-1.35296515043,-1.45472008362,0,0,
2276,2276,1.1380000,289568,1138,18273.666,25721.4121,-0.989589857463,-1.50890393197,0,0,
2277,2277,1.1385000,289569,1139,18270.7793,25727.6621,-3.74168711208,3.60320714757,0,0,
2278,2278,1.1390000,289569,1139,18267.6543,25741.0059,-6.96831616299,14.0899152622,0,0,
2279,2279,1.1395000,289570,1140,18262.6074,25745.5723,-8.93781173737,14.0986713786,0,0,
2280,2280,1.1400000,289570,1140,18264.6504,25746.0547,-5.56773950037,11.3362539998,0,0,
2281,2281,1.1405000,289571,1141,18266.6934,25747.2559,-2.5233774172,9.1939616445,0,0,
2282,2282,1.1410000,289571,1141,18267.2949,25745.4531,-0.858050936106,4.81059124101,0,0,
2283,2283,1.1415000,289572,1142,18266.2129,25737.6406,0.193266187787,-2.91037855042,0,0,
2284,2284,1.1420000,289572,1142,18262.4863,25727.7832,-4.38376827929,-12.7113269495,0,0,
2285,2285,1.1425000,289573,1143,18259.1211,25724.5371,-4.97623122567,-12.656315371,0,0,
2286,2286,1.1430000,289573,1143,18260.6836,25718.8887,-2.5239137505,-14.7158408816,0,0,
2287,2287,1.1435000,289574,1144,18262.8457,25711.5547,2.07242613316,-17.8760650849,0,0,
2288,2288,1.1440000,289574,1144,18265.8516,25702.7812,5.12366536039,-22.7352525151,0,0,
2289,2289,1.1445000,289575,1145,18263.5684,25695.0879,3.45019715276,-23.0033247869,0,0,
2290,2290,1.1450000,289575,1145,18264.2891,25686.5527,4.4621670596,-21.6195659325,0,0,
2291,2291,1.1455000,289576,1146,18266.0918,25683.6699,5.44592101219,-15.5822723599,0,0,
2292,2292,1.1460000,289576,1146,18265.4902,25687.3965,4.62627702121,-5.27967596229,0,0,
2293,2293,1.1465000,289577,1147,18262.4863,25694.4863,1.97914932702,6.77945181205,0,0,
2294,2294,1.1470000,289577,1147,18262.9668,25694.7266,2.02667326318,10.1853146286,0,0,
2295,2295,1.1475000,289578,1148,18264.5293,25687.7559,5.48281653033,7.98403650233,0,0,
2296,2296,1.1480000,289578,1148,18267.4141,25683.0684,7.09579791251,7.94816094773,0,0,
2297,2297,1.1485000,289579,1149,18267.2949,25681.8652,6.12621082156,9.00041346435,0,0,
2298,2298,1.1490000,289579,1149,18262.0059,25681.9863,1.75005931457,10.6702241676,0,0,
2299,2299,1.1495000,289580,1150,18255.7559,25686.7949,-3.3414338975,16.3356616672,0,0,
2300,2300,1.1500000,289580,1150,18255.0332,25684.2715,-2.1624976845,16.1554635239,0,0,
2301,2301,1.1505000,289581,1151,18260.8027,25681.3848,2.73629891051,15.8439716501,0,0,
2302,2302,1.1510000,289581,1151,18258.4004,25689.9199,0.309996501158,26.0564967538,0,0,
2303,2303,1.1515000,289582,1152,18260.4434,25701.459,2.0534330066,34.9169535915,0,0,
2304,2304,1.1520000,289582,1152,18267.6543,25690.6406,8.13124881755,22.3975473048,0,0,
2305,2305,1.1525000,289583,1153,18268.0156,25680.1816,7.06341591936,11.9957049884,0,0,
2306,2306,1.1530000,289583,1153,18265.9727,25689.5566,3.97829244032,22.2715202879,0,0,
2307,2307,1.1535000,289584,1154,18264.7695,25692.9238,2.03601014355,25.8515965675,0,0,
2308,2308,1.1540000,289584,1154,18263.207,25690.6406,0.783403581436,23.0654474389,0,0,
2309,2309,1.1545000,289585,1155,18261.8848,25684.0293,-1.14326157306,18.0103778617,0,0,
2310,2310,1.1550000,289585,1155,18259.3613,25691.6016,-1.54257621331,23.1637309986,0,0,
2311,2311,1.1555000,289586,1156,18255.6348,25702.6621,-4.65440270352,31.1028754546,0,0,
2312,2312,1.1560000,289586,1156,18251.5488,25719.3691,-6.91804669661,41.242767038,0,0,
2313,2313,1.1565000,289587,1157,18249.3848,25721.1719,-7.83897069276,39.0074007241,0,0,
2314,2314,1.1570000,289587,1157,18253.832,25714.3203,-2.1965895564,28.9939734613,0,0,
2315,2315,1.1575000,289588,1158,18255.1543,25706.0254,0.399231590379,17.888373114,0,0,
2316,2316,1.1580000,289588,1158,18255.1543,25699.5371,1.84330099539,5.6843628842,0,0,
2317,2317,1.1585000,289589,1159,18254.3125,25693.6465,1.34309266477,-3.95886241875,0,0,
2318,2318,1.1590000,289589,1159,18256.2363,25701.2188,2.49829615386,-1.68239821014,0,0,
2319,2319,1.1595000,289590,1160,18254.6738,25719.127,2.52291741593,8.78273487236,0,0,
2320,2320,1.1600000,289590,1160,18254.9141,25736.9199,2.04090350335,17.9028947502,0,0,
2321,2321,1.1605000,289591,1161,18256.2363,25741.2441,2.66043793776,13.3263005968,0,0,
2322,2322,1.1610000,289591,1161,18253.5918,25724.5371,0.402546750448,-7.49930285315,0,0,
2323,2323,1.1615000,289592,1162,18247.7012,25710.834,-2.92762881228,-20.4864883947,0,0,
2324,2324,1.1620000,289592,1162,18250.3457,25715.4004,-0.858941130992,-17.4510181223,0,0,
2325,2325,1.1625000,289593,1163,18248.1816,25709.0312,-0.96407715162,-23.0755135916,0,0,
2326,2326,1.1630000,289593,1163,18248.4238,25704.584,-0.822823730393,-25.9256532274,0,0,
2327,2327,1.1635000,289594,1164,18248.9043,25706.2656,1.04866296735,-23.2348799435,0,0,
2328,2328,1.1640000,289594,1164,18252.6309,25708.9121,3.97121677777,-21.2086597661,0,0,
2329,2329,1.1645000,289595,1165,18253.5918,25709.9922,5.05310166171,-19.1800870938,0,0,
2330,2330,1.1650000,289595,1165,18253.1113,25713.2402,4.15008210012,-14.284508919,0,0,
2331,2331,1.1655000,289596,1166,18248.9043,25715.041,-0.34764318543,-12.679882807,0,0,
2332,2332,1.1660000,289596,1166,18248.3027,25717.0859,-0.32873254829,-12.6667512922,0,0,
2333,2333,1.1665000,289597,1167,18244.0957,25714.0801,-2.79596073484,-16.7528746463,0,0,
2334,2334,1.1670000,289597,1167,18252.0293,25709.3906,4.00068306762,-20.918460639,0,0,
2335,2335,1.1675000,289598,1168,18250.3457,25699.1738,3.50736027214,-26.7153545293,0,0,
2336,2336,1.1680000,289598,1168,18250.2246,25693.7656,2.38124487542,-27.724338935,0,0,
2337,2337,1.1685000,289599,1169,18250.707,25686.9141,2.63420793738,-31.3515581745,0,0,
2338,2338,1.1690000,289599,1169,18249.1426,25676.8184,2.5276703977,-36.8655989963,0,0,
2339,2339,1.1695000,289600,1170,18248.3027,25667.2012,2.51206794977,-40.6279118704,0,0,
2340,2340,1.1700000,289600,1170,18248.1816,25661.3105,2.69710424892,-37.6609249182,0,0,
2341,2341,1.1705000,289601,1171,18246.9805,25665.877,-0.223740706342,-25.8410345229,0,0,
2342,2342,1.1710000,289601,1171,18242.291,25669.002,-3.84058374944,-17.709175325,0,0,
2343,2343,1.1715000,289602,1172,18243.373,25674.4141,-2.67722552219,-10.5160828162,0,0,
2344,2344,1.1720000,289602,1172,18240.8496,25681.2656,-5.00968218488,-0.43943660463,0,0,
2345,2345,1.1725000,289603,1173,18241.3301,25685.1113,-3.4521146321,5.06479472226,0,0,
2346,2346,1.1730000,289603,1173,18240.9707,25680.0625,-2.51244487366,1.30420576593,0,0,
2347,2347,1.1735000,289604,1174,18240.9707,25685.834,-1.57757224297,8.49209096587,0,0,
2348,2348,1.1740000,289604,1174,18241.5723,25692.5625,0.285511976497,15.4033093956,0,0,
2349,2349,1.1745000,289605,1175,18245.418,25697.1309,3.50364832791,20.6078746203,0,0,
2350,2350,1.1750000,289605,1175,18242.7734,25698.334,2.67784189882,17.9523651491,0,0,
2351,2351,1.1755000,289606,1176,18241.8105,25700.8574,2.05125227321,17.1971914305,0,0,
2352,2352,1.1760000,289606,1176,18241.2109,25698.2129,2.20749804707,11.1452414106,0,0,
2353,2353,1.1765000,289607,1177,18238.3262,25694.9688,-0.501351525857,10.1345366239,0,0,
2354,2354,1.1770000,289607,1177,18239.4082,25687.7559,0.140481684582,7.18430542533,0,0,
2355,2355,1.1775000,289608,1178,18236.7637,25691.4824,-1.42643708403,12.9093693541,0,0,
2356,2356,1.1780000,289608,1178,18234.4785,25686.7949,-1.82236470246,6.95203832293,0,0,
2357,2357,1.1785000,289609,1179,18236.041,25685.7109,0.36895576748,4.92641417203,0,0,
2358,2358,1.1790000,289609,1179,18231.5938,25681.9863,-3.69167810159,-1.58702491216,0,0,
2359,2359,1.1795000,289610,1180,18231.9551,25687.5156,-0.884411770905,-0.53461106079,0,0,
2360,2360,1.1800000,289610,1180,18227.8691,25686.1934,-3.99946042656,-4.08217768301,0,0,
2361,2361,1.1805000,289611,1181,18229.9121,25689.3184,-1.51610840376,-1.25396616221,0,0,
2362,2362,1.1810000,289611,1181,18229.1895,25688.1172,-0.659104741911,1.45606486652,0,0,
2363,2363,1.1815000,289612,1182,18232.1953,25690.0391,4.47157981627,6.96015540949,0,0,
2364,2364,1.1820000,289612,1182,18232.7969,25689.3184,3.42810692649,5.17610527313,0,0,
2365,2365,1.1825000,289613,1183,18229.9121,25685.5918,2.15891696794,3.69030502114,0,0,
2366,2366,1.1830000,289613,1183,18229.1895,25684.5098,1.05326763189,4.31334409352,0,0,
2367,2367,1.1835000,289614,1184,18225.8242,25683.7891,-0.80235418302,3.96284288094,0,0,
2368,2368,1.1840000,289614,1184,18226.3047,25683.6699,-0.658764692034,3.14243088202,0,0,
2369,2369,1.1845000,289615,1185,18224.8633,25692.8047,-0.798984334023,11.4095418116,0,0,
2370,2370,1.1850000,289615,1185,18226.4258,25704.584,1.35653642745,20.7713871647,0,0,
2371,2371,1.1855000,289616,1186,18227.3867,25706.2656,2.64623865537,19.0662906346,0,0,
2372,2372,1.1860000,289616,1186,18225.3438,25712.5176,1.1920845122,19.7799530605,0,0,
2373,2373,1.1865000,289617,1187,18223.9004,25706.3887,1.39839964618,10.7614139059,0,0,
2374,2374,1.1870000,289617,1187,18221.9785,25695.9297,-1.69252998919,0.340731218319,0,0,
2375,2375,1.1875000,289618,1188,18224.2617,25696.0488,2.30682345877,2.76802405419,0,0,
2376,2376,1.1880000,289618,1188,18225.3438,25694.3672,2.72182536051,1.91406386788,0,0,
2377,2377,1.1885000,289619,1189,18223.9004,25688.1172,1.43514483778,-3.94900471108,0,0,
2378,2378,1.1890000,289619,1189,18225.9453,25676.8184,4.61785332844,-12.5698587374,0,0,
2379,2379,1.1895000,289620,1190,18224.1426,25670.5684,3.4867982766,-15.6119626477,0,0,
2380,2380,1.1900000,289620,1190,18226.4258,25656.7422,5.40106797923,-22.7374809691,0,0,
2381,2381,1.1905000,289621,1191,18227.8691,25653.6172,4.6035743448,-20.9258528131,0,0,
2382,2382,1.1910000,289621,1191,18230.6328,25652.0547,6.69638444287,-18.1516410475,0,0,
2383,2383,1.1915000,289622,1192,18229.0703,25655.7812,3.24339826866,-12.9141264453,0,0,
2384,2384,1.1920000,289622,1192,18227.748,25671.166,0.798110545254,3.02120756469,0,0,
2385,2385,1.1925000,289623,1193,18222.2188,25684.3906,-4.40375842318,14.3554477598,0,0,
2386,2386,1.1930000,289623,1193,18221.377,25688.7168,-4.41455227937,16.6973498089,0,0,
2387,2387,1.1935000,289624,1194,18221.1367,25690.7598,-4.10009484334,15.767616146,0,0,
2388,2388,1.1940000,289624,1194,18211.2793,25694.3672,-11.1930272285,16.1418209932,0,0,
2389,2389,1.1945000,289625,1195,18203.9473,25691.8418,-15.9163023098,12.7905015539,0,0,
2390,2390,1.1950000,289625,1195,18205.2695,25690.6406,-9.87444713069,8.40821918034,0,0,
2391,2391,1.1955000,289626,1196,18201.1836,25691.8418,-10.4551073556,6.88184149388,0,0,
2392,2392,1.1960000,289626,1196,18209.5977,25689.9199,-0.367178334474,3.01846450606,0,0,
2393,2393,1.1965000,289627,1197,18211.5215,25690.6406,2.15785122392,5.62251030751,0,0,
2394,2394,1.1970000,289627,1197,18212.1211,25687.875,2.12914874554,6.36263066088,0,0,
2395,2395,1.1975000,289628,1198,18213.3223,25685.9531,3.89906995648,5.16285367694,0,0,
2396,2396,1.1980000,289628,1198,18212.002,25685.9531,3.58672081227,4.12618178766,0,0,
2397,2397,1.1985000,289629,1199,18210.1973,25690.2793,1.73525678381,6.00186612876,0,0,
2398,2398,1.1990000,289629,1199,18208.877,25687.6348,0.803673951436,-0.0161471386442,0,0,
2399,2399,1.1995000,289630,1200,18209.7168,25681.2656,2.66228860656,-10.4403044401,0,0,
2400,2400,1.2000000,289630,1200,18207.4336,25672.0078,0.858361184024,-19.0269376019,0,0,
2401,2401,1.2005000,289631,1201,18210.6777,25667.8027,2.78248467545,-20.6875472342,0,0,
2402,2402,1.2010000,289631,1201,18209.4766,25665.6387,1.95451623432,-16.2108623627,0,0,
2403,2403,1.2015000,289632,1202,18207.7949,25668.6426,1.34587464613,-8.0084435886,0,0,
2404,2404,1.2020000,289632,1202,18204.6699,25670.0859,-2.47247538583,-5.23551164925,0,0,
2405,2405,1.2025000,289633,1203,18206.4707,25670.6875,0.96446046401,-1.13225120647,0,0,
2406,2406,1.2030000,289633,1203,18203.4668,25664.0762,-1.964159154,-4.25431264311,0,0,
2407,2407,1.2035000,289634,1204,18205.1504,25662.0312,0.843455985734,-3.90270641288,0,0,
2408,2408,1.2040000,289634,1204,18205.5098,25663.7168,0.178280101451,-1.38066407194,0,0,
2409,2409,1.2045000,289635,1205,18208.6348,25664.3145,3.16630393652,-0.48616869728,0,0,
2410,2410,1.2050000,289635,1205,18207.5527,25666.8418,1.45034738314,2.03994504196,0,0,
2411,2411,1.2055000,289636,1206,18207.3145,25676.5762,0.833472804028,10.9989292858,0,0,
2412,2412,1.2060000,289636,1206,18208.5156,25687.9941,1.91799882884,17.6714566176,0,0,
2413,2413,1.2065000,289637,1207,18210.7988,25693.4043,4.20859276599,20.5407788237,0,0,
2414,2414,1.2070000,289637,1207,18208.0352,25699.7754,-0.33284121672,24.3665053959,0,0,
2415,2415,1.2075000,289638,1208,18209.4766,25707.709,1.10282089552,28.2793062457,0,0,
2416,2416,1.2080000,289638,1208,18213.2031,25713.7188,2.79725242467,28.5112703723,0,0,
2417,2417,1.2085000,289639,1209,18216.209,25710.9551,4.25336230697,20.5497241707,0,0,
2418,2418,1.2090000,289639,1209,18215.3672,25698.8145,2.74731450463,6.94111866894,0,0,
2419,2419,1.2095000,289640,1210,18213.9238,25683.6699,1.170326188,-7.89333818005,0,0,
2420,2420,1.2100000,289640,1210,18213.6836,25671.166,-0.200561621397,-15.5822790779,0,0,
2421,2421,1.2105000,289641,1211,18213.8047,25661.1895,-2.15933787555,-22.5790819777,0,0,
2422,2422,1.2110000,289641,1211,18209.2363,25657.3438,-6.32636106401,-23.5383137107,0,0,
2423,2423,1.2115000,289642,1212,18210.4395,25644.002,-5.4274738421,-33.8089382523,0,0,
2424,2424,1.2120000,289642,1212,18209.7168,25636.9082,-6.04407332306,-36.7542434753,0,0,
2425,2425,1.2125000,289643,1213,18213.3223,25640.0332,-2.1204456254,-29.6217147143,0,0,
2426,2426,1.2130000,289643,1213,18213.084,25645.3223,-2.55993867513,-19.5669570808,0,0,
2427,2427,1.2135000,289644,1214,18212.8418,25649.5312,-3.17944047978,-12.074929917,0,0,
2428,2428,1.2140000,289644,1214,18214.4043,25655.2988,-0.346428874409,-4.61931951429,0,0,
2429,2429,1.2145000,289645,1215,18215.3672,25657.4629,-0.0126743634773,0.928960169419,0,0,
2430,2430,1.2150000,289645,1215,18214.4043,25659.9902,-0.741208137681,3.5441636616,0,0,
2431,2431,1.2155000,289646,1216,18214.7656,25661.9121,-0.439535367696,4.96883426861,0,0,
2432,2432,1.2160000,289646,1216,18215.4863,25662.6328,-1.8055663501,5.66922942533,0,0,
2433,2433,1.2165000,289647,1217,18218.1309,25665.6387,-0.613174538463,10.5155856876,0,0,
2434,2434,1.2170000,289647,1217,18219.6934,25666.7188,-1.11930625228,14.556690983,0,0,
2435,2435,1.2175000,289648,1218,18218.1309,25674.5332,-3.10829251397,21.0032539697,0,0,
2436,2436,1.2180000,289648,1218,18219.9355,25680.1816,-1.27871927583,22.5469609891,0,0,
2437,2437,1.2185000,289649,1219,18220.2949,25676.6973,-1.82483782375,14.7453956678,0,0,
2438,2438,1.2190000,289649,1219,18220.6562,25678.5,-2.19418662322,12.1686367311,0,0,
2439,2439,1.2195000,289650,1220,18225.4629,25676.2168,1.43404022439,5.11264477458,0,0,
2440,2440,1.2200000,289650,1220,18224.0215,25674.1719,-0.822655413034,1.4992027304,0,0,
2441,2441,1.2205000,289651,1221,18222.0977,25678.2598,-4.80342012944,3.24896373187,0,0,
2442,2442,1.2210000,289651,1221,18219.4551,25678.1387,-6.78273273956,3.76826969567,0,0,
2443,2443,1.2215000,289652,1222,18220.5352,25681.1426,-4.79537982372,5.75956270536,0,0,
2444,2444,1.2220000,289652,1222,18218.0117,25678.7402,-7.47815929072,0.850728984657,0,0,
2445,2445,1.2225000,289653,1223,18217.8906,25672.9707,-6.37857359803,-3.87574924883,0,0,
2446,2446,1.2230000,289653,1223,18219.8145,25666.7188,-4.35370423766,-7.44188572152,0,0,
2447,2447,1.2235000,289654,1224,18221.1367,25668.6426,-2.80419555305,-5.18031295559,0,0,
2448,2448,1.2240000,289654,1224,18228.9492,25669.3652,2.50059861762,-5.6483595927,0,0,
2449,2449,1.2245000,289655,1225,18228.1074,25667.0801,0.347625016733,-8.51715732622,0,0,
2450,2450,1.2250000,289655,1225,18227.5078,25665.6387,-1.0052440618,-10.2245001522,0,0,
2451,2451,1.2255000,289656,1226,18226.3047,25666.5996,-2.57238233198,-9.82713007506,0,0,
2452,2452,1.2260000,289656,1226,18223.6621,25669.002,-4.78275397184,-9.83697667282,0,0,
2453,2453,1.2265000,289657,1227,18223.1797,25673.3301,-4.37668674019,-5.01509190138,0,0,
2454,2454,1.2270000,289657,1227,18222.5801,25678.3809,-4.93042419014,0.282835520048,0,0,
2455,2455,1.2275000,289658,1228,18221.9785,25670.5684,-4.53594619197,-6.01784523055,0,0,
2456,2456,1.2280000,289658,1228,18221.9785,25672.3691,-4.93601394963,-3.48836217084,0,0,
2457,2457,1.2285000,289659,1229,18230.752,25667.3203,2.72033355685,-5.77280866178,0,0,
2458,2458,1.2290000,289659,1229,18234.7207,25657.8262,6.10740892233,-8.80474415536,0,0,
2459,2459,1.2295000,289660,1230,18233.7578,25651.9355,5.09220747101,-8.58596664757,0,0,
2460,2460,1.2300000,289660,1230,18231.834,25654.3379,2.48737118493,-0.290958044918,0,0,
2461,2461,1.2305000,289661,1231,18231.1133,25654.8203,0.458913551916,2.03814952943,0,0,
2462,2462,1.2310000,289661,1231,18227.3867,25659.1484,-1.79679514132,5.48907570327,0,0,
2463,2463,1.2315000,289662,1232,18220.6562,25659.2676,-7.23060066199,4.54934633223,0,0,
2464,2464,1.2320000,289662,1232,18222.2188,25655.541,-4.23707550927,-0.706993299819,0,0,
2465,2465,1.2325000,289663,1233,18220.5352,25653.1387,-4.27659875389,-5.11177279374,0,0,
2466,2466,1.2330000,289663,1233,18220.6562,25656.3828,-2.40951595737,-2.80686935802,0,0,
2467,2467,1.2335000,289664,1234,18218.373,25660.7109,-2.87953382115,0.0201461073064,0,0,
2468,2468,1.2340000,289664,1234,18219.8145,25659.5078,1.11997377885,-2.52239214032,0,0,
2469,2469,1.2345000,289665,1235,18216.6895,25661.0703,-0.253846151531,0.130865970516,0,0,
2470,2470,1.2350000,289665,1235,18209.1152,25667.9219,-3.98894492248,4.71964968923,0,0,
2471,2471,1.2355000,289666,1236,18206.5918,25672.6094,-3.01308873802,6.5164846854,0,0,
2472,2472,1.2360000,289666,1236,18207.9141,25676.4551,-0.43286519165,7.77888595876,0,0,
2473,2473,1.2365000,289667,1237,18212.1211,25668.1621,4.43818559909,0.452934402946,0,0,
2474,2474,1.2370000,289667,1237,18211.0391,25659.9902,3.92343432076,-3.56905808758,0,0,
2475,2475,1.2375000,289668,1238,18216.5684,25659.2676,10.2143277677,-3.40830922949,0,0,
2476,2476,1.2380000,289668,1238,18226.666,25655.1797,18.918855798,-6.73460525934,0,0,
2477,2477,1.2385000,289669,1239,18235.9219,25654.459,24.5782834405,-6.00588699195,0,0,
2478,2478,1.2390000,289669,1239,18227.3867,25658.0645,14.4846945637,-2.8340539273,0,0,
2479,2479,1.2395000,289670,1240,18213.084,25658.3047,1.08416758478,-3.33690584591,0,0,
2480,2480,1.2400000,289670,1240,18208.9961,25663.9551,-0.399558716394,2.30360322049,0,0,
2481,2481,1.2405000,289671,1241,18227.5078,25668.2832,15.4117753348,4.61095521251,0,0,
2482,2482,1.2410000,289671,1241,18233.7578,25660.3496,19.5305682926,-0.667467977031,0,0,
2483,2483,1.2415000,289672,1242,18231.7148,25659.0254,15.5964483736,-0.669083179671,0,0,
2484,2484,1.2420000,289672,1242,18222.8184,25661.3105,6.07981411467,1.6367900572,0,0,
2485,2485,1.2425000,289673,1243,18217.8906,25663.5938,2.08517340873,5.68326841359,0,0,
2486,2486,1.2430000,289673,1243,18214.2852,25671.7676,-0.907199755237,14.1882357693,0,0,
2487,2487,1.2435000,289674,1244,18212.1211,25672.7285,-1.74769612567,12.3962065454,0,0,
2488,2488,1.2440000,289674,1244,18225.2246,25675.0137,7.89496070619,10.9035606926,0,0,
2489,2489,1.2445000,289675,1245,18236.1621,25664.5566,15.6614754893,-0.377498151253,0,0,
2490,2490,1.2450000,289675,1245,18243.0137,25662.3926,18.3984865439,-3.05464445233,0,0,
2491,2491,1.2455000,289676,1246,18240.6094,25673.2109,12.8193901923,4.65748578992,0,0,
2492,2492,1.2460000,289676,1246,18233.877,25679.5801,4.88382224998,5.62189720515,0,0,
2493,2493,1.2465000,289677,1247,18221.2559,25683.6699,-6.49713894557,6.58632924538,0,0,
2494,2494,1.2470000,289677,1247,18213.5645,25687.0332,-12.3033473838,7.10185312015,0,0,
2495,2495,1.2475000,289678,1248,18201.7832,25689.7988,-19.4973185533,8.82814811376,0,0,
2496,2496,1.2480000,289678,1248,18195.5332,25684.0293,-21.6145604225,1.32981360238,0,0,
2497,2497,1.2485000,289679,1249,18207.1934,25674.1719,-9.28867812934,-6.04007178709,0,0,
2498,2498,1.2490000,289679,1249,18209.8379,25662.0312,-4.76565151529,-11.1906513618,0,0,
2499,2499,1.2495000,289680,1250,18211.8809,25654.9395,-0.439468077945,-12.0091108759,0,0,
2500,2500,1.2500000,289680,1250,18212.4824,25657.8262,1.3032877439,-4.77860147908,0,0,
2501,2501,1.2505000,289681,1251,18212.1211,25670.8066,1.00651865561,7.31387230548,0,0,
2502,2502,1.2510000,289681,1251,18206.2324,25679.8223,-1.79710733874,11.8428413488,0,0,
2503,2503,1.2515000,289682,1252,18206.832,25677.5391,0.688512513341,6.61182563688,0,0,
2504,2504,1.2520000,289682,1252,18206.832,25675.2559,1.21033113931,1.79804354063,0,0,
2505,2505,1.2525000,289683,1253,18207.3145,25671.4082,2.5367403838,-4.65616049809,0,0,
2506,2506,1.2530000,289683,1253,18206.832,25666.5996,2.6939878677,-10.5687146847,0,0,
2507,2507,1.2535000,289684,1254,18200.4629,25675.375,-1.72662116233,-4.37171226951,0,0,
2508,2508,1.2540000,289684,1254,18196.4941,25690.8809,-2.96143210098,6.68136429285,0,0,
2509,2509,1.2545000,289685,1255,18198.6582,25700.6172,0.998534223681,12.179620452,0,0,
2510,2510,1.2550000,289685,1255,18198.2988,25701.459,3.51595270216,6.79284825729,0,0,
2511,2511,1.2555000,289686,1256,18196.1348,25695.0879,2.93399181073,-3.27034809131,0,0,
2512,2512,1.2560000,289686,1256,18194.2109,25685.9531,0.753495506112,-12.9686181015,0,0,
2513,2513,1.2565000,289687,1257,18194.0918,25681.2656,0.19568928922,-13.7222348604,0,0,
2514,2514,1.2570000,289687,1257,18192.168,25678.5,-1.04649136559,-11.153295803,0,0,
2515,2515,1.2575000,289688,1258,18190.3652,25672.7285,-1.99275753557,-14.6727903151,0,0,
2516,2516,1.2580000,289688,1258,18190.2441,25674.0527,-2.10275365104,-11.6073424884,0,0,
2517,2517,1.2585000,289689,1259,18192.6484,25668.2832,-0.310326388032,-14.7429877255,0,0,
2518,2518,1.2590000,289689,1259,18189.6426,25672.7285,-0.242917314295,-10.2596381155,0,0,
2519,2519,1.2595000,289690,1260,18186.2773,25669.7246,0.112690000717,-12.1949403991,0,0,
2520,2520,1.2600000,289690,1260,18180.9902,25677.4199,-2.05722664029,-4.45832783229,0,0,
2521,2521,1.2605000,289691,1261,18177.8633,25691.8418,-6.78123295688,6.63577045435,0,0,
2522,2522,1.2610000,289691,1261,18173.416,25700.498,-8.28243071497,15.0801237893,0,0,
2523,2523,1.2615000,289692,1262,18171.1328,25703.7422,-6.38339788829,15.2571471553,0,0,
2524,2524,1.2620000,289692,1262,18169.4492,25702.1797,-3.54046005477,10.1274320723,0,0,
2525,2525,1.2625000,289693,1263,18166.3242,25695.0879,-2.53321720383,3.09850986664,0,0,
2526,2526,1.2630000,289693,1263,18166.5645,25685.834,0.182753746776,-4.84107231218,0,0,
2527,2527,1.2635000,289694,1264,18169.8105,25678.2598,4.85087065928,-10.5897291456,0,0,
2528,2528,1.2640000,289694,1264,18165.9629,25676.0957,-1.32543932028,-11.5022858908,0,0,
2529,2529,1.2645000,289695,1265,18166.9258,25679.4609,-0.502563251765,-5.06361219381,0,0,
2530,2530,1.2650000,289695,1265,18164.5215,25686.6738,-1.76419831053,1.79599128011,0,0,
2531,2531,1.2655000,289696,1266,18167.8867,25685.2324,3.50995524983,-2.26771630972,0,0,
2532,2532,1.2660000,289696,1266,18172.334,25690.0391,9.55117096249,-0.873488021752,0,0,
2533,2533,1.2665000,289697,1267,18167.166,25686.5527,7.35780884931,-4.22901722064,0,0,
2534,2534,1.2670000,289697,1267,18163.6797,25690.7598,5.41233559298,-0.0365525091645,0,0,
2535,2535,1.2675000,289698,1268,18164.5215,25694.8457,8.31013571653,5.01487360071,0,0,
2536,2536,1.2680000,289698,1268,18162.8379,25696.4082,6.55306590466,7.03051555702,0,0,
2537,2537,1.2685000,289699,1269,18165.2422,25693.5254,4.6249653074,7.31389672019,0,0,
2538,2538,1.2690000,289699,1269,18164.8809,25693.7656,3.49221396494,12.3895404378,0,0,
2539,2539,1.2695000,289700,1270,18162.959,25695.4473,2.11267173264,15.8734817292,0,0,
2540,2540,1.2700000,289700,1270,18165.2422,25694.3672,4.01348394498,14.2422852377,0,0,
2541,2541,1.2705000,289701,1271,18164.041,25690.6406,1.98533279467,7.35014938374,0,0,
2542,2542,1.2710000,289701,1271,18165.3633,25690.5215,4.64919190244,3.79324237725,0,0,
2543,2543,1.2715000,289702,1272,18165.8438,25692.084,4.39978401259,4.49899540744,0,0,
2544,2544,1.2720000,289702,1272,18167.6465,25689.3184,4.34528822553,1.17455021292,0,0,
2545,2545,1.2725000,289703,1273,18168.0059,25681.2656,3.24487888637,-6.48189385838,0,0,
2546,2546,1.2730000,289703,1273,18170.291,25678.9824,3.77195558453,-7.66731654505,0,0,
2547,2547,1.2735000,289704,1274,18167.7676,25681.8652,1.23532103927,-6.62744069692,0,0,
2548,2548,1.2740000,289704,1274,18168.0059,25686.5527,1.09085614956,-4.78097633415,0,0,
2549,2549,1.2745000,289705,1275,18166.9258,25688.5957,-1.35335125186,-3.17040383717,0,0,
2550,2550,1.2750000,289705,1275,18163.5605,25697.252,-3.81546158845,3.18843504622,0,0,
2551,2551,1.2755000,289706,1276,18164.2812,25697.252,-3.19163261429,2.7461776387,0,0,
2552,2552,1.2760000,289706,1276,18164.8809,25693.7656,-4.43189356795,0.539099497619,0,0,
2553,2553,1.2765000,289707,1277,18163.5605,25693.1641,-7.57421708383,2.99595509599,0,0,
2554,2554,1.2770000,289707,1277,18163.4395,25695.5684,-8.35148442936,8.17451457423,0,0,
2555,2555,1.2775000,289708,1278,18164.5215,25695.0879,-8.10185601392,7.70810712606,0,0,
2556,2556,1.2780000,289708,1278,18162.1172,25697.8516,-11.5991296439,8.565286608,0,0,
2557,2557,1.2785000,289709,1279,18166.4434,25699.5371,-9.50484566044,9.28932968881,0,0,
2558,2558,1.2790000,289709,1279,18164.7617,25700.377,-9.37751825724,6.09081605348,0,0,
2559,2559,1.2795000,289710,1280,18165.8438,25700.2559,-6.49639867922,4.00140901001,0,0,
2560,2560,1.2800000,289710,1280,18169.4492,25695.9297,-2.58010786326,-2.62763009392,0,0,
2561,2561,1.2805000,289711,1281,18167.7676,25695.6875,-7.94129048687,-6.29070771596,0,0,
2562,2562,1.2810000,289711,1281,18168.248,25691.8418,-7.73005506989,-7.68768836958,0,0,
2563,2563,1.2815000,289712,1282,18165.4824,25695.4473,-9.58485464333,-3.34091317609,0,0,
2564,2564,1.2820000,289712,1282,18164.5215,25700.9766,-9.12612831363,1.68273852948,0,0,
2565,2565,1.2825000,289713,1283,18162.5977,25704.584,-9.41401952786,6.43778827373,0,0,
2566,2566,1.2830000,289713,1283,18161.0352,25702.5391,-10.5408578188,5.53164772328,0,0,
2567,2567,1.2835000,289714,1284,18160.6738,25702.0605,-10.8346173162,4.99137670195,0,0,
2568,2568,1.2840000,289714,1284,18164.7617,25699.7754,-9.48963547644,1.36786111018,0,0,
2569,2569,1.2845000,289715,1285,18165.002,25699.8965,-10.7009407538,1.35861643155,0,0,
2570,2570,1.2850000,289715,1285,18167.6465,25700.7363,-8.43284263987,-0.0237910525699,0,0,
2571,2571,1.2855000,289716,1286,18165.9629,25704.1035,-9.66455014121,0.186126480011,0,0,
2572,2572,1.2860000,289716,1286,18166.2051,25706.8672,-8.33915419352,-1.59059917054,0,0,
2573,2573,1.2865000,289717,1287,18165.9629,25713.7188,-5.23305692281,3.30186779496,0,0,
2574,2574,1.2870000,289717,1287,18166.3242,25713.959,-3.53006132262,0.945596216327,0,0,
2575,2575,1.2875000,289718,1288,18164.7617,25712.998,-3.47489029818,-0.625594677096,0,0,
2576,2576,1.2880000,289718,1288,18166.8047,25709.6328,-1.51128088412,-3.44998557032,0,0,
2577,2577,1.2885000,289719,1289,18167.5254,25713.959,-4.5160207364,3.05316009462,0,0,
2578,2578,1.2890000,289719,1289,18169.8105,25714.4395,-2.88154456914,6.46311751694,0,0,
2579,2579,1.2895000,289720,1290,18170.291,25714.4395,-1.94167464178,7.12964202908,0,0,
2580,2580,1.2900000,289720,1290,18169.8105,25712.0371,-2.78185464319,4.42049524459,0,0,
2581,2581,1.2905000,289721,1291,18168.127,25711.3145,-4.21567128429,1.30960982027,0,0,
2582,2582,1.2910000,289721,1291,18169.8105,25713.3594,-1.02242001117,-0.312137730411,0,0,
2583,2583,1.2915000,289722,1292,18171.8535,25712.1562,0.853852845773,-2.7959627643,0,0,
2584,2584,1.2920000,289722,1292,18173.7773,25709.752,1.53523050399,-5.35385612511,0,0,
2585,2585,1.2925000,289723,1293,18171.8535,25711.4355,-0.475894929185,-3.80947248712,0,0,
2586,2586,1.2930000,289723,1293,18171.1328,25723.8145,-1.29281851337,5.20527114892,0,0,
2587,2587,1.2935000,289724,1294,18172.8145,25735.4766,1.80242646845,8.92777443387,0,0,
2588,2588,1.2940000,289724,1294,18173.416,25739.8027,2.91483929325,4.90602451589,0,0,
2589,2589,1.2945000,289725,1295,18170.291,25735.7168,0.213461634478,-3.23482720616,0,0,
2590,2590,1.2950000,289725,1295,18172.0938,25735.9551,3.67615376706,-7.76889322738,0,0,
2591,2591,1.2955000,289726,1296,18169.6895,25737.1582,1.97138976658,-8.06024421382,0,0,
2592,2592,1.2960000,289726,1296,18171.0117,25739.5625,2.48276862022,-5.96146246821,0,0,
2593,2593,1.2965000,289727,1297,18171.8535,25731.2676,2.49044440094,-11.8866878812,0,0,
2594,2594,1.2970000,289727,1297,18173.6562,25719.127,3.79167674226,-19.4812510994,0,0,
2595,2595,1.2975000,289728,1298,18177.7441,25715.041,6.45947587642,-20.0543754776,0,0,
2596,2596,1.2980000,289728,1298,18175.2188,25707.9512,3.14347642354,-24.1171371084,0,0,
2597,2597,1.2985000,289729,1299,18176.9023,25706.5078,2.35809501924,-21.3532646915,0,0,
2598,2598,1.2990000,289729,1299,18175.8203,25705.3047,3.15424852769,-20.6809651814,0,0,
2599,2599,1.2995000,289730,1300,18171.7324,25701.9395,1.39989114309,-20.1666204671,0,0,
2600,2600,1.3000000,289730,1300,18174.377,25701.5781,4.77712508173,-17.3382921833,0,0,
2601,2601,1.3005000,289731,1301,18178.7051,25707.709,6.45413887649,-11.3910153174,0,0,
2602,2602,1.3010000,289731,1301,18177.623,25717.6855,5.29653269646,0.859534047266,0,0,
2603,2603,1.3015000,289732,1302,18175.459,25730.4277,4.51232326289,11.2497636873,0,0,
2604,2604,1.3020000,289732,1302,18175.459,25740.4043,5.7168458361,16.8497047442,0,0,
2605,2605,1.3025000,289733,1303,18173.5371,25747.9766,5.35887384909,21.2894505117,0,0,
2606,2606,1.3030000,289733,1303,18174.377,25750.2598,6.25277125438,21.112144206,0,0,
2607,2607,1.3035000,289734,1304,18171.373,25751.4629,3.30980092004,18.6815086896,0,0,
2608,2608,1.3040000,289734,1304,18169.5703,25758.5547,-0.452361491796,20.0999212452,0,0,
2609,2609,1.3045000,289735,1305,18166.6855,25760.1172,-3.01713234717,16.7631134446,0,0,
2610,2610,1.3050000,289735,1305,18169.3301,25766.0078,0.105781929696,15.5402728238,0,0,
2611,2611,1.3055000,289736,1306,18165.002,25773.5801,-1.88462617174,14.5554087141,0,0,
2612,2612,1.3060000,289736,1306,18159.9531,25778.627,-3.69396335637,10.2980385605,0,0,
2613,2613,1.3065000,289737,1307,18158.1504,25787.041,-0.38165530992,10.9949491438,0,0,
2614,2614,1.3070000,289737,1307,18156.9473,25790.8887,1.76900359123,7.91754675991,0,0,
2615,2615,1.3075000,289738,1308,18161.3965,25789.6875,8.656583814,2.33525733421,0,0,
2616,2616,1.3080000,289738,1308,18154.3027,25785.9609,3.47909834161,-3.6781490061,0,0,
2617,2617,1.3085000,289739,1309,18159.9531,25792.0918,7.0847674653,0.102145965482,0,0,
2618,2618,1.3090000,289739,1309,18155.3848,25804.9531,3.6761494455,10.1248493016,0,0,
2619,2619,1.3095000,289740,1310,18154.5449,25799.6641,5.14187278853,2.06067335862,0,0,
2620,2620,1.3100000,289740,1310,18151.5391,25781.6328,4.10793206531,-15.39244128,0,0,
2621,2621,1.3105000,289741,1311,18149.7363,25770.6953,4.63939374837,-25.5307652661,0,0,
2622,2622,1.3110000,289741,1311,18150.5781,25766.248,7.92834370077,-29.514632707,0,0,
2623,2623,1.3115000,289742,1312,18150.2168,25771.8984,8.72398528311,-22.3465032757,0,0,
2624,2624,1.3120000,289742,1312,18145.4082,25776.4668,5.18501806949,-16.5282358762,0,0,
2625,2625,1.3125000,289743,1313,18144.9277,25774.6621,6.92830838717,-17.1414680481,0,0,
2626,2626,1.3130000,289743,1313,18144.5684,25768.291,8.05766117391,-23.4047419766,0,0,
2627,2627,1.3135000,289744,1314,18147.0918,25763.123,12.2501950507,-29.044249584,0,0,
2628,2628,1.3140000,289744,1314,18148.0527,25758.4355,13.9969181353,-31.9757312993,0,0,
2629,2629,1.3145000,289745,1315,18148.5332,25766.8496,14.9754625202,-19.9732896732,0,0,
2630,2630,1.3150000,289745,1315,18149.9766,25793.7734,16.7868408717,3.29266524519,0,0,
2631,2631,1.3155000,289746,1316,18148.0527,25820.8203,15.0757454097,24.0277155798,0,0,
2632,2632,1.3160000,289746,1316,18151.1777,25826.4688,15.9722892586,23.9376353265,0,0,
2633,2633,1.3165000,289747,1317,18149.4961,25817.0938,12.5623919402,13.9127928466,0,0,
2634,2634,1.3170000,289747,1317,18149.0156,25811.4434,10.7658011496,9.36639558417,0,0,
2635,2635,1.3175000,289748,1318,18150.457,25813.127,10.078460073,9.14504625855,0,0,
2636,2636,1.3180000,289748,1318,18150.2168,25818.416,8.95021155057,10.9977692634,0,0,
2637,2637,1.3185000,289749,1319,18146.4902,25830.6777,3.09296986153,17.7845013512,0,0,
2638,2638,1.3190000,289749,1319,18147.2129,25839.6895,5.1720110479,18.486691434,0,0,
2639,2639,1.3195000,289750,1320,18148.1738,25847.1426,7.34650364207,18.7520672584,0,0,
2640,2640,1.3200000,289750,1320,18145.5293,25851.9531,4.28394718142,15.5282858924,0,0,
2641,2641,1.3205000,289751,1321,18146.25,25857.9609,2.1574469743,10.8516793834,0,0,
2642,2642,1.3210000,289751,1321,18143.2441,25842.8184,-0.3212704099,-7.67002553241,0,0,
2643,2643,1.3215000,289752,1322,18144.9277,25831.0371,2.34226050922,-21.6402456188,0,0,
2644,2644,1.3220000,289752,1322,18147.2129,25809.8809,4.4984106286,-39.8751307929,0,0,
2645,2645,1.3225000,289753,1323,18147.0918,25812.1641,4.55992513014,-32.7302745299,0,0,
2646,2646,1.3230000,289753,1323,18143.0059,25824.0645,-0.113958252493,-16.9259511007,0,0,
2647,2647,1.3235000,289754,1324,18141.6816,25830.6777,-1.61268889696,-8.66514595745,0,0,
2648,2648,1.3240000,289754,1324,18136.0332,25847.625,-8.54916884041,4.82999356623,0,0,
2649,2649,1.3245000,289755,1325,18139.2793,25863.25,-5.82336422756,15.86150938,0,0,
2650,2650,1.3250000,289755,1325,18136.3926,25869.3809,-9.09916405571,14.8441129646,0,0,
2651,2651,1.3255000,289756,1326,18135.793,25855.3184,-7.94739017855,-3.4970276913,0,0,
2652,2652,1.3260000,289756,1326,18136.3926,25840.1719,-5.79410019716,-19.3560589592,0,0,
2653,2653,1.3265000,289757,1327,18134.4707,25831.3984,-5.15032694591,-25.6179172107,0,0,
2654,2654,1.3270000,289757,1327,18134.7109,25824.9062,-3.98728342291,-27.0430633038,0,0,
2655,2655,1.3275000,289758,1328,18137.4746,25818.416,-1.66794946777,-25.5649374497,0,0,
2656,2656,1.3280000,289758,1328,18138.3184,25822.1406,-0.723364857593,-14.3706415618,0,0,
2657,2657,1.3285000,289759,1329,18136.1543,25827.5527,-6.71969903902,-4.42509897108,0,0,
2658,2658,1.3290000,289759,1329,18135.9121,25831.998,-6.85615901815,3.48402465231,0,0,
2659,2659,1.3295000,289760,1330,18134.2305,25830.0762,-7.90562746988,7.08096785316,0,0,
2660,2660,1.3300000,289760,1330,18134.8301,25831.0371,-7.00786447396,14.2069308239,0,0,
2661,2661,1.3305000,289761,1331,18136.0332,25828.752,-5.79901638987,14.6418598513,0,0,
2662,2662,1.3310000,289761,1331,18145.1699,25813.6074,1.57572396456,2.45864255645,0,0,
2663,2663,1.3315000,289762,1332,18144.9277,25800.3848,-0.786242436101,-5.76682765305,0,0,
2664,2664,1.3320000,289762,1332,18136.3926,25800.8672,-9.28420074193,-0.246361444992,0,0,
2665,2665,1.3325000,289763,1333,18134.5918,25804.834,-10.5827761063,8.0782411464,0,0,
2666,2666,1.3330000,289763,1333,18130.9844,25816.1328,-13.3850959128,19.7182166911,0,0,
2667,2667,1.3335000,289764,1334,18134.3496,25823.1035,-9.62921411997,23.7167582385,0,0,
2668,2668,1.3340000,289764,1334,18141.3223,25828.1504,-3.63040122565,25.6143893394,0,0,
2669,2669,1.3345000,289765,1335,18145.8887,25821.9004,-0.67208879668,18.1176443576,0,0,
2670,2670,1.3350000,289765,1335,18147.2129,25820.8203,-0.874704966821,11.692849211,0,0,
2671,2671,1.3355000,289766,1336,18144.4473,25819.498,-4.10455118896,7.86265672738,0,0,
2672,2672,1.3360000,289766,1336,18139.5195,25824.3047,-10.6082731944,14.0575822116,0,0,
2673,2673,1.3365000,289767,1337,18136.0332,25832.4785,-13.827662035,26.250053507,0,0,
2674,2674,1.3370000,289767,1337,18134.3496,25837.6484,-14.8747469952,33.3209182482,0,0,
2675,2675,1.3375000,289768,1338,18137.7168,25834.4043,-12.2682214252,28.696947833,0,0,
2676,2676,1.3380000,289768,1338,18139.5195,25827.0703,-10.2477335503,20.1019178144,0,0,
2677,2677,1.3385000,289769,1339,18140.3613,25819.498,-10.2768176533,11.4965045137,0,0,
2678,2678,1.3390000,289769,1339,18144.4473,25828.1504,-5.69318883926,16.6585794411,0,0,
2679,2679,1.3395000,289770,1340,18138.3184,25835.002,-9.89111582586,20.4593391659,0,0,
2680,2680,1.3400000,289770,1340,18144.207,25836.4453,-4.23744948133,18.5537984957,0,0,
2681,2681,1.3405000,289771,1341,18143.7266,25830.916,-7.13593637583,8.76259024015,0,0,
2682,2682,1.3410000,289771,1341,18142.7637,25834.4043,-7.29769263465,13.5282324407,0,0,
2683,2683,1.3415000,289772,1342,18142.1641,25836.3262,-7.05851936921,13.7841099438,0,0,
2684,2684,1.3420000,289772,1342,18140.2402,25834.5234,-8.19957084319,12.3399726183,0,0,
2685,2685,1.3425000,289773,1343,18140.8418,25825.8672,-6.18919257768,3.17799996221,0,0,
2686,2686,1.3430000,289773,1343,18138.4375,25824.7871,-7.29061522948,1.46740903813,0,0,
2687,2687,1.3435000,289774,1344,18138.6777,25823.2246,-6.23884171943,-0.0239760417783,0,0,
2688,2688,1.3440000,289774,1344,18134.7109,25822.502,-9.65506188521,-3.7165890007,0,0,
2689,2689,1.3445000,289775,1345,18132.5469,25819.7363,-11.3274581842,-7.12941972772,0,0,
2690,2690,1.3450000,289775,1345,18132.9082,25818.2949,-9.77527793895,-8.77489624969,0,0,
2691,2691,1.3455000,289776,1346,18133.3887,25821.541,-7.05474935356,-3.7264341003,0,0,
2692,2692,1.3460000,289776,1346,18136.2734,25819.7363,-2.73847311746,-3.88282609645,0,0,
2693,2693,1.3465000,289777,1347,18139.7598,25820.0996,2.51889645157,-2.65357147125,0,0,
2694,2694,1.3470000,289777,1347,18137.8359,25813.3672,1.20755690772,-6.93275828977,0,0,
2695,2695,1.3475000,289778,1348,18139.0371,25802.6699,1.83767314788,-12.0406477274,0,0,
2696,2696,1.3480000,289778,1348,18140.3613,25800.7441,3.38905227477,-9.80912490982,0,0,
2697,2697,1.3485000,289779,1349,18141.4434,25805.1934,1.610001639,-3.83533327695,0,0,
2698,2698,1.3490000,289779,1349,18140.6016,25810.002,0.876420142019,1.63894954257,0,0,
2699,2699,1.3495000,289780,1350,18137.3555,25803.3906,-1.15454403809,-0.554168238531,0,0,
2700,2700,1.3500000,289780,1350,18138.1973,25804.7129,0.167344652134,4.88154948899,0,0,
2701,2701,1.3505000,289781,1351,18145.0488,25804.3516,6.07673932222,6.05207055906,0,0,
2702,2702,1.3510000,289781,1351,18143.125,25808.7988,2.47523637881,10.9662869097,0,0,
2703,2703,1.3515000,289782,1352,18138.7988,25816.0098,-1.1878850468,16.2266018696,0,0,
2704,2704,1.3520000,289782,1352,18134.5918,25825.5078,-2.34851913479,20.0051715813,0,0,
2705,2705,1.3525000,289783,1353,18136.1543,25834.6426,0.498770472274,22.0839597169,0,0,
2706,2706,1.3530000,289783,1353,18135.6738,25832.5996,1.27405881001,11.8825753009,0,0,
2707,2707,1.3535000,289784,1354,18131.8262,25836.8066,-1.6334185633,7.40370750625,0,0,
2708,2708,1.3540000,289784,1354,18134.8301,25844.1387,1.15154681062,6.4341625021,0,0,
2709,2709,1.3545000,289785,1355,18135.0723,25849.4277,1.80965122954,5.57999732689,0,0,
2710,2710,1.3550000,289785,1355,18136.5137,25847.625,4.09491805389,-5.76161191163,0,0,
2711,2711,1.3555000,289786,1356,18134.7109,25847.1426,4.36320348804,-12.9039251099,0,0,
2712,2712,1.3560000,289786,1356,18135.793,25838.7285,5.66768291956,-22.8452606746,0,0,
2713,2713,1.3565000,289787,1357,18141.5625,25833.5605,10.9222903981,-25.1254889617,0,0,
2714,2714,1.3570000,289787,1357,18143.4863,25838.9707,11.6398668813,-17.8405910933,0,0,
2715,2715,1.3575000,289788,1358,18143.7266,25850.9902,9.30089060051,-7.73196996478,0,0,
2716,2716,1.3580000,289788,1358,18149.6152,25847.625,13.0036986128,-12.4816489534,0,0,
2717,2717,1.3585000,289789,1359,18148.1738,25848.1074,9.30916766756,-14.2826334298,0,0,
2718,2718,1.3590000,289789,1359,18144.3262,25856.7598,5.28860337813,-12.6129783546,0,0,
2719,2719,1.3595000,289790,1360,18137.2363,25858.3223,1.38125791862,-15.7450626753,0,0,
2720,2720,1.3600000,289790,1360,18131.9473,25858.9238,-2.81022254733,-18.4107674209,0,0,
2721,2721,1.3605000,289791,1361,18131.8262,25862.5293,-2.63909013985,-18.817894102,0,0,
2722,2722,1.3610000,289791,1361,18131.8262,25861.8105,-0.163824028201,-19.6797748458,0,0,
2723,2723,1.3615000,289792,1362,18134.1094,25862.6504,3.73663419585,-20.4199678029,0,0,
2724,2724,1.3620000,289792,1362,18133.6289,25864.334,4.63997142758,-18.3116742233,0,0,
2725,2725,1.3625000,289793,1363,18138.0762,25863.1309,9.56974683707,-19.4846892663,0,0,
2726,2726,1.3630000,289793,1363,18142.6445,25862.7715,13.7424289466,-21.1402707133,0,0,
2727,2727,1.3635000,289794,1364,18143.7266,25861.4473,13.4294451802,-22.7075655273,0,0,
2728,2728,1.3640000,289794,1364,18149.377,25863.0098,16.5774522961,-24.019407495,0,0,
2729,2729,1.3645000,289795,1365,18145.7695,25864.9355,10.6301838137,-23.2080365815,0,0,
2730,2730,1.3650000,289795,1365,18145.5293,25867.9395,8.47124375759,-21.6424267529,0,0,
2731,2731,1.3655000,289796,1366,18147.6934,25874.5488,9.4313888135,-15.9810119732,0,0,
2732,2732,1.3660000,289796,1366,18147.5723,25875.9922,7.80713334244,-14.6819051423,0,0,
2733,2733,1.3665000,289797,1367,18148.4141,25873.9473,7.98608167478,-16.9233511079,0,0,
2734,2734,1.3670000,289797,1367,18148.7754,25868.5391,7.53221857858,-19.6261686441,0,0,
2735,2735,1.3675000,289798,1368,18145.1699,25862.6504,2.61207172697,-20.0203465644,0,0,
2736,2736,1.3680000,289798,1368,18145.4082,25866.2559,2.40197539778,-14.4615284554,0,0,
2737,2737,1.3685000,289799,1369,18148.5332,25873.2285,2.28584576556,-8.89353141799,0,0,
2738,2738,1.3690000,289799,1369,18147.2129,25873.9473,0.624136245622,-9.00638612208,0,0,
2739,2739,1.3695000,289800,1370,18144.3262,25873.9473,-1.26098818521,-5.40792977757,0,0,
2740,2740,1.3700000,289800,1370,18149.8574,25871.5449,2.98216624337,-4.87393875783,0,0,
2741,2741,1.3705000,289801,1371,18148.0527,25866.0156,-0.648689496043,-7.81012998438,0,0,
2742,2742,1.3710000,289801,1371,18150.8184,25864.5723,0.547730713136,-7.13199926263,0,0,
2743,2743,1.3715000,289802,1372,18149.7363,25864.8125,-0.338093594537,-5.84602272439,0,0,
2744,2744,1.3720000,289802,1372,18149.1348,25863.4922,0.536758645099,-7.59088606677,0,0,
2745,2745,1.3725000,289803,1373,18150.457,25864.334,0.980051575926,-6.89040744354,0,0,
2746,2746,1.3730000,289803,1373,18149.4961,25865.1738,-0.205237793792,-5.86488892749,0,0,
2747,2747,1.3735000,289804,1374,18153.1016,25863.9707,2.30462694338,-7.98038441127,0,0,
2748,2748,1.3740000,289804,1374,18155.2656,25866.1348,1.49340329026,-6.59666639397,0,0,
2749,2749,1.3745000,289805,1375,18152.2598,25868.0605,-2.53124517599,-3.29070062393,0,0,
2750,2750,1.3750000,289805,1375,18154.1836,25862.8906,-1.45247489684,-8.35200889248,0,0,
2751,2751,1.3755000,289806,1376,18147.9336,25863.9707,-5.87670669692,-6.15910676806,0,0,
2752,2752,1.3760000,289806,1376,18148.0527,25863.0098,-5.73690204219,-2.40780656092,0,0,
2753,2753,1.3765000,289807,1377,18146.25,25865.2949,-7.54949271239,5.51359919215,0,0,
2754,2754,1.3770000,289807,1377,18146.9707,25869.3809,-6.48243820104,12.2313394039,0,0,
2755,2755,1.3775000,289808,1378,18144.9277,25869.623,-8.62356292311,12.7411007085,0,0,
2756,2756,1.3780000,289808,1378,18143.125,25870.2246,-10.0429236075,15.8834701346,0,0,
2757,2757,1.3785000,289809,1379,18139.3984,25870.9453,-11.8142034334,17.1706676568,0,0,
2758,2758,1.3790000,289809,1379,18141.2012,25870.4629,-7.36255141276,13.2357388253,0,0,
2759,2759,1.3795000,289810,1380,18142.7637,25871.0645,-1.72821761582,13.2958737519,0,0,
2760,2760,1.3800000,289810,1380,18138.7988,25867.5781,-3.9379776753,10.8547014678,0,0,
2761,2761,1.3805000,289811,1381,18139.5195,25868.0605,-3.31332162436,11.1971299545,0,0,
2762,2762,1.3810000,289811,1381,18141.2012,25867.459,-0.315317812694,13.7808892542,0,0,
2763,2763,1.3815000,289812,1382,18140.2402,25866.6172,-0.415520899512,14.4166950037,0,0,
2764,2764,1.3820000,289812,1382,18137.1152,25868.5391,-1.78750878551,18.6275277976,0,0,
2765,2765,1.3825000,289813,1383,18141.8027,25867.0957,2.82587509343,19.2742774275,0,0,
2766,2766,1.3830000,289813,1383,18141.9238,25865.7754,2.96586608299,18.517978322,0,0,
2767,2767,1.3835000,289814,1384,18143.125,25865.2949,3.94815224225,19.0059544873,0,0,
2768,2768,1.3840000,289814,1384,18143.125,25866.7363,2.89176136097,18.3428879753,0,0,
2769,2769,1.3845000,289815,1385,18142.2832,25867.5781,2.25056690021,18.239234886,0,0,
2770,2770,1.3850000,289815,1385,18142.2832,25869.623,1.88965654932,18.6822092141,0,0,
2771,2771,1.3855000,289816,1386,18142.8848,25869.8613,2.37222934362,17.8634277514,0,0,
2772,2772,1.3860000,289816,1386,18145.8887,25868.9004,4.71759560804,17.5675874812,0,0,
2773,2773,1.3865000,289817,1387,18148.0527,25869.623,6.34935435236,18.6302011515,0,0,
2774,2774,1.3870000,289817,1387,18148.1738,25870.1016,5.91228853563,20.9325226582,0,0,
2775,2775,1.3875000,289818,1388,18145.7695,25871.3047,3.08176600809,24.6836177421,0,0,
2776,2776,1.3880000,289818,1388,18145.2891,25869.9824,2.20135790049,22.075063026,0,0,
2777,2777,1.3885000,289819,1389,18147.5723,25870.8223,1.41030842841,19.3579039816,0,0,
2778,2778,1.3890000,289819,1389,18149.9766,25868.6621,3.18971540699,15.7243360704,0,0,
2779,2779,1.3895000,289820,1390,18150.457,25864.8125,3.81294775952,14.5767350666,0,0,
2780,2780,1.3900000,289820,1390,18146.9707,25866.9766,-1.20733277236,18.2210565727,0,0,
2781,2781,1.3905000,289821,1391,18149.377,25868.7812,-0.153778813932,20.2626114682,0,0,
2782,2782,1.3910000,289821,1391,18148.6543,25866.7363,-2.27077049676,17.3577471162,0,0,
2783,2783,1.3915000,289822,1392,18148.7754,25863.6113,-1.64040259294,12.8390258508,0,0,
2784,2784,1.3920000,289822,1392,18149.8574,25860.4863,0.514279490266,7.77931633997,0,0,
2785,2785,1.3925000,289823,1393,18147.8125,25862.8906,-2.05929717002,7.66405807269,0,0,
2786,2786,1.3930000,289823,1393,18145.5293,25863.8516,-3.67779039842,6.32484056138,0,0,
2787,2787,1.3935000,289824,1394,18147.9336,25867.5781,-2.07715458923,6.33579651264,0,0,
2788,2788,1.3940000,289824,1394,18144.207,25869.0215,-6.75429877148,3.73297661424,0,0,
2789,2789,1.3945000,289825,1395,18148.1738,25868.6621,-2.68640359164,1.65231970786,0,0,
2790,2790,1.3950000,289825,1395,18147.8125,25869.623,-3.42957258533,0.206007894955,0,0,
2791,2791,1.3955000,289826,1396,18147.0918,25866.2559,-1.90351986334,-4.98315220579,0,0,
2792,2792,1.3960000,289826,1396,18147.6934,25867.6973,-1.86333245077,-2.43286989142,0,0,
2793,2793,1.3965000,289827,1397,18147.0918,25870.3438,-2.85129647946,1.48671378531,0,0,
2794,2794,1.3970000,289827,1397,18149.4961,25871.0645,-1.32980349115,1.55207528817,0,0,
2795,2795,1.3975000,289828,1398,18150.0957,25874.3105,-1.82223213842,2.56993103781,0,0,
2796,2796,1.3980000,289828,1398,18145.4082,25876.5938,-6.56124622473,4.19802682174,0,0,
2797,2797,1.3985000,289829,1399,18146.7324,25883.084,-4.5462493324,7.51377570714,0,0,
2798,2798,1.3990000,289829,1399,18142.8848,25883.9277,-7.00648204272,2.28274896939,0,0,
2799,2799,1.3995000,289830,1400,18143.9668,25893.3027,-3.20215867809,6.29932820303,0,0,
2800,2800,1.4000000,289830,1400,18142.4043,25895.3457,-3.18664344888,4.49154725875,0,0,
2801,2801,1.4005000,289831,1401,18140.8418,25896.4277,-5.07377333649,0.433939283767,0,0,
2802,2802,1.4010000,289831,1401,18141.6816,25905.2012,-3.43039879838,5.67467364676,0,0,
2803,2803,1.4015000,289832,1402,18139.5195,25905.8027,-4.36306080741,1.86766609623,0,0,
2804,2804,1.4020000,289832,1402,18140,25908.9277,-2.21527043024,1.14260936586,0,0,
2805,2805,1.4025000,289833,1403,18144.207,25909.8906,0.760347307797,-0.993391349932,0,0,
2806,2806,1.4030000,289833,1403,18149.7363,25907.7266,5.0590343765,-6.6377058119,0,0,
2807,2807,1.4035000,289834,1404,18152.0195,25911.6934,5.63917558519,-6.23472668443,0,0,
2808,2808,1.4040000,289834,1404,18150.9395,25911.334,2.81192101394,-11.9711154412,0,0,
2809,2809,1.4045000,289835,1405,18155.7461,25915.4199,6.07677260227,-12.2533898305,0,0,
2810,2810,1.4050000,289835,1405,18159.1113,25915.7793,6.85657537843,-16.0894159008,0,0,
2811,2811,1.4055000,289836,1406,18158.8711,25919.5059,4.55181832142,-15.8981109184,0,0,
2812,2812,1.4060000,289836,1406,18159.834,25919.748,3.18265691443,-17.2505585099,0,0,
2813,2813,1.4065000,289837,1407,18160.0742,25919.748,1.93249491025,-18.7638264898,0,0,
2814,2814,1.4070000,289837,1407,18161.0352,25924.0723,1.77458393065,-14.9863987417,0,0,
2815,2815,1.4075000,289838,1408,18163.3184,25924.6738,2.78505398228,-13.8692151692,0,0,
2816,2816,1.4080000,289838,1408,18163.4395,25933.6895,1.36224177569,-8.42387920049,0,0,
2817,2817,1.4085000,289839,1409,18163.9199,25935.0137,-1.82388655129,-12.3917956642,0,0,
2818,2818,1.4090000,289839,1409,18166.5645,25937.7754,-0.802527217276,-13.0199083391,0,0,
2819,2819,1.4095000,289840,1410,18163.3184,25940.0605,-3.78841114586,-11.0194839931,0,0,
2820,2820,1.4100000,289840,1410,18166.5645,25944.0254,-2.05245664908,-9.18874700208,0,0,
2821,2821,1.4105000,289841,1411,18163.9199,25947.1543,-6.0993838714,-8.68468076479,0,0,
2822,2822,1.4110000,289841,1411,18165.9629,25949.3145,-5.31458545746,-9.40642534593,0,0,
2823,2823,1.4115000,289842,1412,18164.4004,25954.9668,-6.35074985325,-7.88050978857,0,0,
2824,2824,1.4120000,289842,1412,18168.7285,25952.8027,-1.80458360417,-14.0056833154,0,0,
2825,2825,1.4125000,289843,1413,18168.3672,25952.9219,-2.78884661773,-18.2539087294,0,0,
2826,2826,1.4130000,289843,1413,18168.6074,25951.4785,-2.51874950282,-22.495800617,0,0,
2827,2827,1.4135000,289844,1414,18166.9258,25957.4902,-5.31678907535,-20.9016182843,0,0,
2828,2828,1.4140000,289844,1414,18168.7285,25957.7285,-4.483426043,-24.1402553446,0,0,
2829,2829,1.4145000,289845,1415,18171.0117,25960.9766,-3.39658429857,-22.4277050372,0,0,
2830,2830,1.4150000,289845,1415,18173.8965,25960.6152,-1.70445063396,-24.4386957993,0,0,
2831,2831,1.4155000,289846,1416,18174.377,25962.7793,-0.303555693794,-23.2826114406,0,0,
2832,2832,1.4160000,289846,1416,18172.9355,25963.2598,-2.7387230487,-21.8452580557,0,0,
2833,2833,1.4165000,289847,1417,18174.498,25961.8184,-2.07149440373,-21.2828552054,0,0,
2834,2834,1.4170000,289847,1417,18179.9082,25966.2656,1.00722106707,-16.4625909498,0,0,
2835,2835,1.4175000,289848,1418,18177.3828,25966.8652,-2.83483622268,-16.4774871704,0,0,
2836,2836,1.4180000,289848,1418,18178.7051,25964.8223,-1.96609216407,-16.6653319341,0,0,
2837,2837,1.4185000,289849,1419,18180.0273,25969.2715,-1.51069632678,-12.771522869,0,0,
2838,2838,1.4190000,289849,1419,18180.6289,25973.2363,-0.822588100021,-11.1419138708,0,0,
2839,2839,1.4195000,289850,1420,18176.541,25973.2363,-3.4849974748,-12.801496078,0,0,
2840,2840,1.4200000,289850,1420,18176.4219,25976.2422,-2.67367065686,-9.12481195612,0,0,
2841,2841,1.4205000,289851,1421,18176.3008,25977.2031,-3.49977689119,-8.48177741613,0,0,
2842,2842,1.4210000,289851,1421,18180.5078,25975.6406,-0.0758077123893,-8.83009615802,0,0,
2843,2843,1.4215000,289852,1422,18184.8359,25979.8457,3.37512215228,-3.53837664974,0,0,
2844,2844,1.4220000,289852,1422,18185.6777,25982.4922,3.40514193881,-0.116857206758,0,0,
2845,2845,1.4225000,289853,1423,18188.5605,25986.5781,2.98064890974,4.84164918127,0,0,
2846,2846,1.4230000,289853,1423,18186.7598,25985.7363,-0.706831273654,4.68266255148,0,0,
2847,2847,1.4235000,289854,1424,18184.3535,25987.2988,-3.70577723377,5.84394897128,0,0,
2848,2848,1.4240000,289854,1424,18180.6289,25991.0254,-6.87778098943,7.53617850922,0,0,
2849,2849,1.4245000,289855,1425,18186.998,25991.3887,-1.38573510796,6.28963628736,0,0,
2850,2850,1.4250000,289855,1425,18186.6387,25996.4355,-2.49303716604,9.4499594791,0,0,
2851,2851,1.4255000,289856,1426,18183.5137,25994.0312,-4.78566220015,6.02238701121,0,0,
2852,2852,1.4260000,289856,1426,18188.8027,25996.0762,-0.158280290852,8.6682038909,0,0,
2853,2853,1.4265000,289857,1427,18193.25,25997.877,3.51827616551,10.5878593229,0,0,
2854,2854,1.4270000,289857,1427,18194.6934,26002.6855,4.2280532587,15.1067936771,0,0,
2855,2855,1.4275000,289858,1428,18192.2871,26004.0078,1.60438665883,17.4223169898,0,0,
2856,2856,1.4280000,289858,1428,18198.5391,26000.8828,6.56891406408,12.5264250038,0,0,
2857,2857,1.4285000,289859,1429,18199.5,25997.0371,4.39924103783,7.72955931151,0,0,
2858,2858,1.4290000,289859,1429,18196.2559,26001.4844,0.382983875511,11.6320141468,0,0,
2859,2859,1.4295000,289860,1430,18192.0488,26005.9316,-1.79934146448,17.2496887345,0,0,
2860,2860,1.4300000,289860,1430,18195.1738,26010.5,0.522172414822,20.6950536267,0,0,
2861,2861,1.4305000,289861,1431,18198.0566,26013.2637,2.69590575073,21.8636283004,0,0,
2862,2862,1.4310000,289861,1431,18202.9863,26013.0234,5.50512170999,20.1812399747,0,0,
2863,2863,1.4315000,289862,1432,18209.1152,26022.5176,10.2249644708,25.4461025325,0,0,
2864,2864,1.4320000,289862,1432,18210.6777,26024.0801,9.67001010501,23.5403344119,0,0,
2865,2865,1.4325000,289863,1433,18207.9141,26036.9434,5.68845505569,29.5149360317,0,0,
2866,2866,1.4330000,289863,1433,18203.3457,26046.4395,1.31670179963,31.6734829017,0,0,
2867,2867,1.4335000,289864,1434,18201.543,26046.9199,-0.809288357558,23.4250090679,0,0,
2868,2868,1.4340000,289864,1434,18200.4629,26047.041,-2.27898264171,16.997844788,0,0,
2869,2869,1.4345000,289865,1435,18196.7363,26056.2969,-5.59111319831,19.6708807134,0,0,
2870,2870,1.4350000,289865,1435,18198.9004,26052.209,-3.19678260424,10.6845592696,0,0,
2871,2871,1.4355000,289866,1436,18202.625,26052.4512,2.0828706912,6.62790077355,0,0,
2872,2872,1.4360000,289866,1436,18207.0723,26043.1953,5.66566054693,-2.94550529486,0,0,
2873,2873,1.4365000,289867,1437,18209.1152,26035.8613,6.20163960772,-8.24612961035,0,0,
2874,2874,1.4370000,289867,1437,18209.7168,26031.0547,4.31011722215,-11.8616096148,0,0,
2875,2875,1.4375000,289868,1438,18206.2324,26033.9375,0.860635915865,-8.55264266202,0,0,
2876,2876,1.4380000,289868,1438,18202.7461,26042.2324,-1.85862776928,0.39316855254,0,0,
2877,2877,1.4385000,289869,1439,18195.7734,26051.127,-6.96798783012,5.78761151424,0,0,
2878,2878,1.4390000,289869,1439,18195.1738,26055.0938,-4.90930477377,5.0046719159,0,0,
2879,2879,1.4395000,289870,1440,18186.2773,26056.6562,-8.54176695193,2.93509255635,0,0,
2880,2880,1.4400000,289870,1440,18184.1152,26066.752,-6.66941930645,9.36125723625,0,0,
2881,2881,1.4405000,289871,1441,18196.1348,26063.8691,5.27703577536,3.43091815242,0,0,
2882,2882,1.4410000,289871,1441,18205.5098,26066.875,12.4495621906,4.39912851619,0,0,
2883,2883,1.4415000,289872,1442,18205.3906,26077.8125,10.8529569026,10.9483620161,0,0,
2884,2884,1.4420000,289872,1442,18203.707,26092.2363,8.83486432894,19.1231407659,0,0,
2885,2885,1.4425000,289873,1443,18221.8574,26094.4004,21.1133208282,15.7779145554,0,0,
2886,2886,1.4430000,289873,1443,18238.9277,26089.4707,30.8656793041,7.51732157495,0,0,
2887,2887,1.4435000,289874,1444,18243.1348,26082.9824,28.1446823545,-1.67365653884,0,0,
2888,2888,1.4440000,289874,1444,18240.1289,26078.0527,19.9001543997,-9.13368664586,0,0,
2889,2889,1.4445000,289875,1445,18241.6914,26078.8926,14.5935897082,-9.85814622427,0,0,
2890,2890,1.4450000,289875,1445,18253.4707,26069.5176,19.1126551766,-19.1308535756,0,0,
2891,2891,1.4455000,289876,1446,18273.1855,26067.5957,29.6276212618,-19.0818907419,0,0,
2892,2892,1.4460000,289876,1446,18291.6953,26073.6035,34.5535776253,-11.7316364277,0,0,
2893,2893,1.4465000,289877,1447,18303.8359,26083.1016,33.008191067,-2.87009283719,0,0,
2894,2894,1.4470000,289877,1447,18308.7637,26088.9922,25.6015394418,1.25550314519,0,0,
2895,2895,1.4475000,289878,1448,18308.4043,26099.5703,15.0728298655,10.0511322171,0,0,
2896,2896,1.4480000,289878,1448,18316.9375,26093.7988,11.6839622802,1.9552948699,0,0,
2897,2897,1.4485000,289879,1449,18323.4277,26098.127,6.04877711745,3.34642611201,0,0,
2898,2898,1.4490000,289879,1449,18326.916,26116.0371,0.108658531471,14.6480881455,0,0,
2899,2899,1.4495000,289880,1450,18322.9473,26129.8594,-9.599716222,21.9728802386,0,0,
2900,2900,1.4500000,289880,1450,18304.918,26148.0098,-31.7662842389,29.8628516484,0,0,
2901,2901,1.4505000,289881,1451,18289.4121,26164.3594,-46.9783758149,34.2551428772,0,0,
2902,2902,1.4510000,289881,1451,18277.0312,26173.1328,-56.9597323705,31.2223111001,0,0,
2903,2903,1.4515000,289882,1452,18275.1074,26174.8145,-54.7163947573,19.6993469116,0,0,
2904,2904,1.4520000,289882,1452,18288.8105,26173.7344,-39.1579541586,9.21060526871,0,0,
2905,2905,1.4525000,289883,1453,18308.2832,26171.5703,-20.6547665281,-3.54617462336,0,0,
2906,2906,1.4530000,289883,1453,18330.041,26171.4512,-3.16030705824,-11.4996612579,0,0,
2907,2907,1.4535000,289884,1454,18348.1895,26170.127,6.69926754571,-19.2725268577,0,0,
2908,2908,1.4540000,289884,1454,18355.8848,26173.252,5.38509409961,-21.1525729744,0,0,
2909,2909,1.4545000,289885,1455,18368.5059,26173.252,8.27821053361,-25.9946575779,0,0,
2910,2910,1.4550000,289885,1455,18378.9629,26176.377,7.54932380771,-25.0028313283,0,0,
2911,2911,1.4555000,289886,1456,18381.7266,26188.0391,1.61847160631,-17.947501836,0,0,
2912,2912,1.4560000,289886,1456,18390.8613,26191.2832,0.503930912888,-16.271006831,0,0,
2913,2913,1.4565000,289887,1457,18407.209,26191.5234,5.19081126418,-17.0079623591,0,0,
2914,2914,1.4570000,289887,1457,18410.5762,26203.0625,-2.57371307544,-10.1193116041,0,0,
2915,2915,1.4575000,289888,1458,18407.4512,26208.834,-12.5559598997,-10.7747543409,0,0,
2916,2916,1.4580000,289888,1458,18410.8164,26204.9863,-15.4238878155,-18.6411821878,0,0,
2917,2917,1.4585000,289889,1459,18421.3945,26204.1465,-11.5335202586,-24.3695857034,0,0,
2918,2918,1.4590000,289889,1459,18428.0059,26199.6973,-12.0814695513,-31.6612384097,0,0,
2919,2919,1.4595000,289890,1460,18435.5781,26204.3848,-9.48850385547,-28.8713551469,0,0,
2920,2920,1.4600000,289890,1460,18436.1777,26204.1465,-14.9567442312,-30.5707645466,0,0,
2921,2921,1.4605000,289891,1461,18435.0977,26212.3203,-23.9945447773,-22.8990419548,0,0,
2922,2922,1.4610000,289891,1461,18428.0059,26223.6172,-35.6705582597,-13.9677790388,0,0,
2923,2923,1.4615000,289892,1462,18427.7637,26234.916,-37.1067361504,-8.29429612571,0,0,
2924,2924,1.4620000,289892,1462,18448.8008,26242.0098,-19.7423125553,-7.30548599654,0,0,
2925,2925,1.4625000,289893,1463,18467.791,26245.2559,-11.9776960182,-7.17508921039,0,0,
2926,2926,1.4630000,289893,1463,18482.8184,26245.375,-7.70577090867,-7.8799989151,0,0,
2927,2927,1.4635000,289894,1464,18494.7168,26249.7031,-4.2730619195,-5.49755268814,0,0,
2928,2928,1.4640000,289894,1464,18499.166,26253.6699,-6.030759469,-5.03574057398,0,0,
2929,2929,1.4645000,289895,1465,18500.7285,26263.1641,-11.9608094393,-0.641212805654,0,0,
2930,2930,1.4650000,289895,1465,18509.502,26263.2832,-11.6444663979,-3.42949426038,0,0,
2931,2931,1.4655000,289896,1466,18515.873,26269.1738,-13.6043926948,-1.23911328998,0,0,
2932,2932,1.4660000,289896,1466,18518.6387,26274.7031,-19.0050739918,-0.57585746201,0,0,
2933,2933,1.4665000,289897,1467,18516.9551,26285.7637,-24.9909563652,3.81210378877,0,0,
2934,2934,1.4670000,289897,1467,18535.707,26289.25,-11.0685166989,1.67631420535,0,0,
2935,2935,1.4675000,289898,1468,18563.7129,26288.6484,9.22806529587,-2.70943957558,0,0,
2936,2936,1.4680000,289898,1468,18589.4375,26287.6855,21.0642042131,-5.13881080951,0,0,
2937,2937,1.4685000,289899,1469,18610.9531,26295.5,26.7072383205,-1.6417804388,0,0,
2938,2938,1.4690000,289899,1469,18622.6133,26305.8359,24.5795412313,0.565271484218,0,0,
2939,2939,1.4695000,289900,1470,18630.1855,26317.0156,21.5687832683,5.27295335739,0,0,
2940,2940,1.4700000,289900,1470,18637.3984,26317.9766,18.5469750702,-0.642473908175,0,0,
2941,2941,1.4705000,289901,1471,18637.3984,26316.1738,9.80985436935,-7.00452756997,0,0,
2942,2942,1.4710000,289901,1471,18636.3164,26312.209,0.528070390394,-11.9940107783,0,0,
2943,2943,1.4715000,289902,1472,18631.5078,26313.1699,-10.8592872874,-12.4461540122,0,0,
2944,2944,1.4720000,289902,1472,18629.584,26316.8965,-19.7592608211,-8.3405482442,0,0,
2945,2945,1.4725000,289903,1473,18633.791,26321.8223,-21.8450412129,-5.86008375933,0,0,
2946,2946,1.4730000,289903,1473,18640.1621,26333.4844,-21.1565915852,2.29416691041,0,0,
2947,2947,1.4735000,289904,1474,18646.5332,26348.5078,-20.3476169392,11.6895400534,0,0,
2948,2948,1.4740000,289904,1474,18641.3652,26359.3262,-27.0275208522,15.678294771,0,0,
2949,2949,1.4745000,289905,1475,18627.4199,26365.8184,-39.2042869441,15.0591271984,0,0,
2950,2950,1.4750000,289905,1475,18605.5449,26374.834,-54.5913315196,17.6600489746,0,0,
2951,2951,1.4755000,289906,1476,18586.5527,26392.8613,-60.8034032978,24.7383092647,0,0,
2952,2952,1.4760000,289906,1476,18579.8203,26404.5234,-56.0997064206,28.4593825867,0,0,
2953,2953,1.4765000,289907,1477,18585.8301,26410.4141,-41.3702603646,27.0290927478,0,0,
2954,2954,1.4770000,289907,1477,18610.5918,26416.3027,-11.2271995267,22.1746242954,0,0,
2955,2955,1.4775000,289908,1478,18653.0254,26419.7891,30.718890176,15.6758206093,0,0,
2956,2956,1.4780000,289908,1478,18704.9512,26416.5449,71.152029774,6.65795810941,0,0,
2957,2957,1.4785000,289909,1479,18729.1113,26420.2676,79.6643243276,2.82564559009,0,0,
2958,2958,1.4790000,289909,1479,18726.1074,26419.3066,63.9495808234,-3.54074880014,0,0,
2959,2959,1.4795000,289910,1480,18721.7793,26421.3516,51.1790761669,-7.00471973139,0,0,
2960,2960,1.4800000,289910,1480,18726.9492,26422.5527,47.7020530397,-9.83491548112,0,0,
2961,2961,1.4805000,289911,1481,18722.7422,26423.6348,34.4789998931,-11.9660904738,0,0,
2962,2962,1.4810000,289911,1481,18729.4727,26427.4824,33.5174439406,-11.7814210492,0,0,
2963,2963,1.4815000,289912,1482,18736.2051,26430.6074,32.8501135674,-13.2806915036,0,0,
2964,2964,1.4820000,289912,1482,18744.1387,26429.0449,30.0983176801,-17.4442472796,0,0,
2965,2965,1.4825000,289913,1483,18745.8203,26437.5781,19.0756827981,-9.69990657392,0,0,
2966,2966,1.4830000,289913,1483,18741.7324,26444.4297,7.02268638567,-2.70786306925,0,0,
2967,2967,1.4835000,289914,1484,18733.4395,26453.2051,-3.39354461365,3.51184278527,0,0,
2968,2968,1.4840000,289914,1484,18735.4824,26456.2109,-0.623723229869,2.99846155841,0,0,
2969,2969,1.4845000,289915,1485,18736.084,26457.6543,-0.492251094751,0.0907815782448,0,0,
2970,2970,1.4850000,289915,1485,18741.8535,26462.9395,2.24549902406,3.50991289572,0,0,
2971,2971,1.4855000,289916,1486,18751.5898,26466.1875,7.98318683278,3.52393103431,0,0,
2972,2972,1.4860000,289916,1486,18757.7207,26471.3574,9.55190623605,4.55859362003,0,0,
2973,2973,1.4865000,289917,1487,18755.7969,26470.1543,6.4511663212,-1.07992642826,0,0,
2974,2974,1.4870000,289917,1487,18762.4082,26472.0762,9.06818066847,-1.26189109109,0,0,
2975,2975,1.4875000,289918,1488,18769.8613,26471.9551,11.5797258431,-1.66642593264,0,0,
2976,2976,1.4880000,289918,1488,18770.9434,26474.7207,6.95405636959,1.65383247368,0,0,
2977,2977,1.4885000,289919,1489,18770.9434,26479.0488,3.18997797736,2.89722345784,0,0,
2978,2978,1.4890000,289919,1489,18772.8652,26482.7754,5.0574524773,0.977652054383,0,0,
2979,2979,1.4895000,289920,1490,18777.0723,26483.9766,11.3178719091,-0.788549120645,0,0,
2980,2980,1.4900000,289920,1490,18779.959,26486.5,15.5938267436,-0.357490178169,0,0,
2981,2981,1.4905000,289921,1491,18784.6465,26492.2715,21.6264805808,3.72436792519,0,0,
2982,2982,1.4910000,289921,1491,18788.1309,26497.3203,24.65334487,8.23834724359,0,0,
2983,2983,1.4915000,289922,1492,18786.3281,26506.6953,22.5287133744,13.9919768722,0,0,
2984,2984,1.4920000,289922,1492,18790.7754,26508.1387,23.3645637293,13.1785384981,0,0,
2985,2985,1.4925000,289923,1493,18796.0645,26516.3125,23.2204783879,15.9970147122,0,0,
2986,2986,1.4930000,289923,1493,18801.5957,26520.2793,22.7513098836,13.9779507942,0,0,
2987,2987,1.4935000,289924,1494,18804.959,26524.4844,20.0976086935,11.8797169565,0,0,
2988,2988,1.4940000,289924,1494,18808.2051,26528.5723,20.5928262641,10.6163206514,0,0,
2989,2989,1.4945000,289925,1495,18810.3691,26527.6094,20.8361785337,6.03112549887,0,0,
2990,2990,1.4950000,289925,1495,18816.8613,26526.5293,25.2084750417,2.83207200015,0,0,
2991,2991,1.4955000,289926,1496,18819.5059,26527.8516,26.4993291586,-0.822975317336,0,0,
2992,2992,1.4960000,289926,1496,18824.1934,26537.3457,25.0561250841,6.86085144615,0,0,
2993,2993,1.4965000,289927,1497,18823.7129,26546.8438,16.1879019715,14.5757942558,0,0,
2994,2994,1.4970000,289927,1497,18828.4004,26552.252,10.9994408262,14.7712049817,0,0,
2995,2995,1.4975000,289928,1498,18825.2754,26557.6621,-0.74844862377,14.9490335168,0,0,
2996,2996,1.4980000,289928,1498,18826.4766,26552.8516,-9.24364299388,9.29908643202,0,0,
2997,2997,1.4985000,289929,1499,18827.3184,26549.8496,-12.4490681165,3.32075509743,0,0,
2998,2998,1.4990000,289929,1499,18824.9141,26555.2578,-12.8020236357,6.49405818315,0,0,
2999,2999,1.4995000,289930,1500,18828.0391,26560.5469,-6.96078457207,7.71075710743,0,0,
3000,3000,1.5000000,289930,1500,18830.082,26563.0703,-4.96202908197,6.86611875293,0,0,
3001,3001,1.5005000,289931,1501,18842.3438,26568.7188,4.46677502882,8.61859937655,0,0,
3002,3002,1.5010000,289931,1501,18845.8301,26566.4355,3.80162612772,2.52812736532,0,0,
3003,3003,1.5015000,289932,1502,18852.1992,26563.791,5.59964303603,-3.68111566835,0,0,
3004,3004,1.5020000,289932,1502,18851.959,26553.2129,-1.12780340811,-13.8474638524,0,0,
3005,3005,1.5025000,289933,1503,18854.8438,26554.2949,-6.02366202807,-12.0096466466,0,0,
3006,3006,1.5030000,289933,1503,18860.2539,26555.9785,-5.93087954829,-8.07339865356,0,0,
3007,3007,1.5035000,289934,1504,18865.7832,26551.7715,-3.27967323118,-10.6791838802,0,0,
3008,3008,1.5040000,289934,1504,18867.1055,26552.4922,-4.57175751169,-8.33898581572,0,0,
3009,3009,1.5045000,289935,1505,18867.2246,26556.8203,-7.62298503281,-4.12187158623,0,0,
3010,3010,1.5050000,289935,1505,18867.9473,26564.3926,-12.1510074735,3.38956781908,0,0,
3011,3011,1.5055000,289936,1506,18868.0664,26570.6426,-17.0255741042,7.74072291781,0,0,
3012,3012,1.5060000,289936,1506,18863.0176,26575.6895,-24.7982166358,9.34504588876,0,0,
3013,3013,1.5065000,289937,1507,18858.5703,26579.416,-27.5231909171,9.32730269985,0,0,
3014,3014,1.5070000,289937,1507,18859.0508,26578.0957,-28.5053977054,5.85296864639,0,0,
3015,3015,1.5075000,289938,1508,18861.5762,26573.166,-27.8700623703,1.29831185607,0,0,
3016,3016,1.5080000,289938,1508,18861.334,26574.3691,-29.5605865668,2.92725182689,0,0,
3017,3017,1.5085000,289939,1509,18861.2148,26574.4902,-29.8173451234,0.755552511708,0,0,
3018,3018,1.5090000,289939,1509,18862.7773,26576.0527,-26.1891231799,-1.83154875667,0,0,
3019,3019,1.5095000,289940,1510,18866.7441,26581.4609,-19.2785490755,0.888770540817,0,0,
3020,3020,1.5100000,289940,1510,18872.5137,26586.0293,-11.7207469079,2.55515581453,0,0,
3021,3021,1.5105000,289941,1511,18879.7266,26580.6191,-3.84811826563,-4.07750076416,0,0,
3022,3022,1.5110000,289941,1511,18886.8184,26579.416,1.86922267222,-4.55604209483,0,0,
3023,3023,1.5115000,289942,1512,18891.627,26572.5645,5.16410723682,-11.2892587157,0,0,
3024,3024,1.5120000,289942,1512,18897.2754,26567.998,5.28824722499,-12.5617659497,0,0,
3025,3025,1.5125000,289943,1513,18892.9473,26565.9551,-4.14792198238,-13.9315873236,0,0,
3026,3026,1.5130000,289943,1513,18886.2168,26565.7129,-14.1094667077,-13.2268881702,0,0,
3027,3027,1.5135000,289944,1514,18882.7324,26569.3203,-19.3050350274,-9.77494476207,0,0,
3028,3028,1.5140000,289944,1514,18882.3711,26577.7344,-18.4130864596,-2.42978368253,0,0,
3029,3029,1.5145000,289945,1515,18877.5625,26581.2207,-20.1283497463,0.838499048774,0,0,
3030,3030,1.5150000,289945,1515,18871.3125,26582.0625,-22.3410215947,1.77996034099,0,0,
3031,3031,1.5155000,289946,1516,18862.5371,26580.1387,-24.1616336799,-2.60187645064,0,0,
3032,3032,1.5160000,289946,1516,18861.8164,26580.3809,-21.9727645484,-2.59552078055,0,0,
3033,3033,1.5165000,289947,1517,18869.1484,26586.0293,-14.9235758143,3.02506308598,0,0,
3034,3034,1.5170000,289947,1517,18879.6055,26587.4707,-8.82325636624,2.72833449878,0,0,
3035,3035,1.5175000,289948,1518,18898.4785,26587.3516,3.47075463248,1.3243101095,0,0,
3036,3036,1.5180000,289948,1518,18912.6621,26589.5156,6.76127130368,5.76898260291,0,0,
3037,3037,1.5185000,289949,1519,18923.4805,26579.8984,9.56283498725,-2.81128921398,0,0,
3038,3038,1.5190000,289949,1519,18924.0801,26575.8125,7.53471288582,-5.66316915938,0,0,
3039,3039,1.5195000,289950,1520,18912.9023,26576.8926,-3.57024054885,-4.62642927654,0,0,
3040,3040,1.5200000,289950,1520,18902.8047,26581.2207,-12.9872818706,-0.256089619818,0,0,
3041,3041,1.5205000,289951,1521,18895.1113,26587.3516,-20.4589508258,4.17460225382,0,0,
3042,3042,1.5210000,289951,1521,18895.9531,26591.0781,-18.5721874128,6.20389356355,0,0,
3043,3043,1.5215000,289952,1522,18894.9922,26596.7266,-18.4603964627,8.46234903768,0,0,
3044,3044,1.5220000,289952,1522,18901.7227,26599.8516,-12.7768007202,10.1805351059,0,0,
3045,3045,1.5225000,289953,1523,18897.1543,26604.2988,-19.0217808326,10.633446602,0,0,
3046,3046,1.5230000,289953,1523,18890.3027,26604.0605,-24.2286124779,8.11370714323,0,0,
3047,3047,1.5235000,289954,1524,18889.2227,26599.1309,-21.1778022983,1.96721022695,0,0,
3048,3048,1.5240000,289954,1524,18887.7793,26596.9668,-17.6907987166,-1.61869324589,0,0,
3049,3049,1.5245000,289955,1525,18880.4473,26600.2129,-19.6458537351,-1.5276956155,0,0,
3050,3050,1.5250000,289955,1525,18872.9941,26607.4238,-22.8007694331,2.12483156936,0,0,
3051,3051,1.5255000,289956,1526,18869.8691,26621.127,-21.6608874593,9.76815255274,0,0,
3052,3052,1.5260000,289956,1526,18865.9023,26637.2344,-19.7038340075,16.9668543818,0,0,
3053,3053,1.5265000,289957,1527,18854.7246,26649.1348,-21.1286308544,18.9005681054,0,0,
3054,3054,1.5270000,289957,1527,18859.8926,26655.5059,-11.6181836599,16.7572583502,0,0,
3055,3055,1.5275000,289958,1528,18874.7988,26655.1465,3.65881244737,10.522149773,0,0,
3056,3056,1.5280000,289958,1528,18881.4082,26652.0215,9.73068835966,1.98719258037,0,0,
3057,3057,1.5285000,289959,1529,18884.1738,26653.584,12.1200700686,-3.37754751378,0,0,
3058,3058,1.5290000,289959,1529,18884.5332,26659.2324,13.5511561997,-6.54191155045,0,0,
3059,3059,1.5295000,289960,1530,18890.1836,26661.998,19.9623085411,-10.9764824259,0,0,
3060,3060,1.5300000,289960,1530,18903.5254,26669.9297,31.1651371574,-10.2738503392,0,0,
3061,3061,1.5305000,289961,1531,18922.8789,26671.6113,44.8520338667,-13.1870120764,0,0,
3062,3062,1.5310000,289961,1531,18937.4238,26669.209,50.9684628179,-18.522708385,0,0,
3063,3063,1.5315000,289962,1532,18953.7715,26669.8105,57.4295306747,-20.9668907816,0,0,
3064,3064,1.5320000,289962,1532,18969.2773,26676.7812,58.4118809469,-16.4721228189,0,0,
3065,3065,1.5325000,289963,1533,18968.7949,26684.8359,45.8431633572,-14.5307593396,0,0,
3066,3066,1.5330000,289963,1533,18966.0312,26692.2871,33.0608252432,-13.7724994992,0,0,
3067,3067,1.5335000,289964,1534,18962.1855,26703.8281,20.6985574601,-10.9858575924,0,0,
3068,3068,1.5340000,289964,1534,18956.8965,26709.7168,10.4019685291,-13.8456742827,0,0,
3069,3069,1.5345000,289965,1535,18954.8535,26710.9199,5.86132957181,-18.1752354484,0,0,
3070,3070,1.5350000,289965,1535,18954.373,26712,3.47994150912,-20.9326512664,0,0,
3071,3071,1.5355000,289966,1536,18957.7363,26715.3672,6.15569898571,-23.0384468404,0,0,
3072,3072,1.5360000,289966,1536,18964.709,26718.1309,7.00771937659,-24.0238095261,0,0,
3073,3073,1.5365000,289967,1537,18964.709,26720.7754,-0.838674857893,-24.617089859,0,0,
3074,3074,1.5370000,289967,1537,18969.2773,26721.498,-6.02449285143,-26.7651820466,0,0,
3075,3075,1.5375000,289968,1538,18972.4023,26725.7031,-12.4326498876,-24.9578827009,0,0,
3076,3076,1.5380000,289968,1538,18973.123,26735.0801,-20.8202487007,-16.3638550585,0,0,
3077,3077,1.5385000,289969,1539,18973.0039,26740.0078,-24.9733944385,-12.9138126573,0,0,
3078,3078,1.5390000,289969,1539,18979.0137,26742.1719,-17.9493916709,-13.4799509214,0,0,
3079,3079,1.5395000,289970,1540,18979.0137,26745.1777,-14.73597743,-14.6624775071,0,0,
3080,3080,1.5400000,289970,1540,18981.6582,26748.541,-11.0503956044,-14.9554299669,0,0,
3081,3081,1.5405000,289971,1541,18983.4609,26750.3457,-10.6169389555,-16.8877746715,0,0,
3082,3082,1.5410000,289971,1541,18987.4277,26745.7793,-9.24781042616,-22.4215881862,0,0,
3083,3083,1.5415000,289972,1542,18983.7012,26746.377,-14.1408611649,-23.1284724683,0,0,
3084,3084,1.5420000,289972,1542,18989.7109,26746.2578,-12.0061804632,-21.5774921467,0,0,
3085,3085,1.5425000,289973,1543,18992.7168,26745.0566,-12.1941121533,-22.2055349966,0,0,
3086,3086,1.5430000,289973,1543,18992.957,26747.5801,-12.9604858328,-17.3505231823,0,0,
3087,3087,1.5435000,289974,1544,18989.4707,26754.6719,-15.6193725701,-8.4738897318,0,0,
3088,3088,1.5440000,289974,1544,18990.3125,26762.125,-13.2069996814,-1.64202988419,0,0,
3089,3089,1.5445000,289975,1545,18992.4766,26767.2949,-9.29295061294,0.403848261791,0,0,
3090,3090,1.5450000,289975,1545,18996.5625,26761.5234,-5.92788750534,-6.73605729539,0,0,
3091,3091,1.5455000,289976,1546,18995.7207,26759.1191,-8.05322026723,-10.6288323773,0,0,
3092,3092,1.5460000,289976,1546,18994.8809,26758.8809,-8.50930662414,-12.2308640619,0,0,
3093,3093,1.5465000,289977,1547,18996.4434,26753.9512,-3.74862913165,-15.873337752,0,0,
3094,3094,1.5470000,289977,1547,18997.2832,26753.7109,-5.5508725657,-12.2296225232,0,0,
3095,3095,1.5475000,289978,1548,18997.7656,26746.7402,-9.2342627286,-11.6389918375,0,0,
3096,3096,1.5480000,289978,1548,18999.0879,26743.375,-9.6186847608,-7.63146362245,0,0,
3097,3097,1.5485000,289979,1549,18998.4863,26737.123,-10.0726889845,-8.27588741961,0,0,
3098,3098,1.5490000,289979,1549,19001.8516,26737.002,-5.32884606478,-5.21432106111,0,0,
3099,3099,1.5495000,289980,1550,18996.6836,26731.4746,-8.14007638135,-5.33808660637,0,0,
3100,3100,1.5500000,289980,1550,18989.4707,26738.6855,-12.9043730382,4.97750988504,0,0,
3101,3101,1.5505000,289981,1551,18985.5039,26744.0938,-14.3733734505,14.8328970476,0,0,
3102,3102,1.5510000,289981,1551,18984.7832,26746.0176,-11.7616236859,21.3661637837,0,0,
3103,3103,1.5515000,289982,1552,18984.9043,26745.1777,-7.87807286484,23.7270516819,0,0,
3104,3104,1.5520000,289982,1552,18990.4316,26746.2578,-1.63140631515,27.3671763052,0,0,
3105,3105,1.5525000,289983,1553,18995.3613,26738.5645,6.56938623152,21.1976271484,0,0,
3106,3106,1.5530000,289983,1553,18997.7656,26735.6797,11.9402921305,20.2825978225,0,0,
3107,3107,1.5535000,289984,1554,19000.2891,26725.8223,16.3937581771,12.7290644507,0,0,
3108,3108,1.5540000,289984,1554,19007.9824,26717.0488,25.5703688188,8.58970734591,0,0,
3109,3109,1.5545000,289985,1555,19012.0684,26708.2734,30.6022728832,8.03519039796,0,0,
3110,3110,1.5550000,289985,1555,19013.2715,26712.123,32.085820451,18.9926732527,0,0,
3111,3111,1.5555000,289986,1556,19013.5117,26716.6895,32.9800636984,26.9058947971,0,0,
3112,3112,1.5560000,289986,1556,19016.0352,26717.7715,31.5226810446,31.5661619437,0,0,
3113,3113,1.5565000,289987,1557,19021.5645,26710.5566,31.5458088239,28.7929761973,0,0,
3114,3114,1.5570000,289987,1557,19023.7285,26705.5098,25.8625673017,28.4423489612,0,0,
3115,3115,1.5575000,289988,1558,19030.0996,26700.2207,23.8573148178,27.820127408,0,0,
3116,3116,1.5580000,289988,1558,19033.5859,26695.291,18.9812054883,28.9754257231,0,0,
3117,3117,1.5585000,289989,1559,19037.0723,26689.4043,17.4196600221,29.8915309157,0,0,
3118,3118,1.5590000,289989,1559,19037.793,26687.8418,16.7924241638,33.6052235377,0,0,
3119,3119,1.5595000,289990,1560,19039.9551,26675.8203,19.9842853326,26.7123823174,0,0,
3120,3120,1.5600000,289990,1560,19047.7695,26659.9531,25.4283014848,18.1944450962,0,0,
3121,3121,1.5605000,289991,1561,19049.9316,26649.4941,23.4010390433,15.6302240435,0,0,
3122,3122,1.5610000,289991,1561,19053.0586,26635.1934,21.1044337962,12.4530524532,0,0,
3123,3123,1.5615000,289992,1562,19048.8516,26619.5645,14.2920650618,7.60664609171,0,0,
3124,3124,1.5620000,289992,1562,19052.2168,26601.8965,11.4365642353,4.34882073679,0,0,
3125,3125,1.5625000,289993,1563,19050.6543,26585.9082,5.67052373753,2.54514990418,0,0,
3126,3126,1.5630000,289993,1563,19056.0645,26567.3984,8.06497270549,0.418368628953,0,0,
3127,3127,1.5635000,289994,1564,19060.1504,26563.9121,9.87992687238,11.2752967544,0,0,
3128,3128,1.5640000,289994,1564,19060.8711,26560.666,8.2247110892,19.7518577927,0,0,
3129,3129,1.5645000,289995,1565,19065.5586,26557.9004,10.0884314059,26.0430159221,0,0,
3130,3130,1.5650000,289995,1565,19064.959,26552.0098,5.43841545969,30.2601278468,0,0,
3131,3131,1.5655000,289996,1566,19070.0059,26551.7715,5.9715625672,36.5552381408,0,0,
3132,3132,1.5660000,289996,1566,19071.5684,26546.8438,4.11158675257,36.6410556091,0,0,
3133,3133,1.5665000,289997,1567,19075.8965,26543.1172,6.50778949374,38.8017487329,0,0,
3134,3134,1.5670000,289997,1567,19072.4102,26544.7988,-2.23937863135,45.3729210816,0,0,
3135,3135,1.5675000,289998,1568,19064.4785,26545.8809,-14.6964760585,52.5793162358,0,0,
3136,3136,1.5680000,289998,1568,19063.9961,26551.1699,-17.5095845002,60.2622694836,0,0,
3137,3137,1.5685000,289999,1569,19066.1602,26550.0879,-16.3333585977,58.9317943553,0,0,
3138,3138,1.5690000,289999,1569,19064.7168,26551.2891,-17.5869323441,55.873837051,0,0,
3139,3139,1.5695000,290000,1570,19063.5156,26554.7754,-16.8669615123,55.7947734559,0,0,
3140,3140,1.5700000,290000,1570,19058.8281,26561.748,-19.5744445525,54.6797620051,0,0,
3141,3141,1.5705000,290001,1571,19062.916,26568.7188,-15.584441748,54.6516706085,0,0,
3142,3142,1.5710000,290001,1571,19059.4277,26571.7246,-18.3561604252,51.353248217,0,0,
3143,3143,1.5715000,290002,1572,19056.0645,26583.7441,-19.934029737,54.1600092351,0,0,
3144,3144,1.5720000,290002,1572,19057.1445,26597.9297,-19.5885457758,56.1392366096,0,0,
3145,3145,1.5725000,290003,1573,19055.9434,26607.6641,-18.1325864991,52.0064862413,0,0,
3146,3146,1.5730000,290003,1573,19057.627,26613.6738,-13.4572616328,42.9239733295,0,0,
3147,3147,1.5735000,290004,1574,19058.5879,26611.873,-10.141579098,27.466385718,0,0,
3148,3148,1.5740000,290004,1574,19054.7402,26612.3535,-10.9079981386,15.5699518527,0,0,
3149,3149,1.5745000,290005,1575,19055.1016,26618.002,-6.75485917549,10.4781666455,0,0,
3150,3150,1.5750000,290005,1575,19056.7832,26618.9629,-1.70254686371,-0.376218609557,0,0,
3151,3151,1.5755000,290006,1576,19055.9434,26619.5645,1.18054383902,-12.2452017035,0,0,
3152,3152,1.5760000,290006,1576,19052.8184,26615.1172,-1.61785492279,-25.6356261351,0,0,
3153,3153,1.5765000,290007,1577,19053.2988,26618.002,-2.07875544801,-29.9124669815,0,0,
3154,3154,1.5770000,290007,1577,19054.7402,26616.2012,-3.10903111016,-38.2556636814,0,0,
3155,3155,1.5775000,290008,1578,19061.2324,26609.2266,-0.869550990849,-49.9241635332,0,0,
3156,3156,1.5780000,290008,1578,19062.4336,26603.3379,-3.31202479153,-57.8786404068,0,0,
3157,3157,1.5785000,290009,1579,19061.834,26604.0605,-4.56476783283,-58.4560591902,0,0,
3158,3158,1.5790000,290009,1579,19059.0684,26606.4629,-4.2826687257,-58.8856028902,0,0,
3159,3159,1.5795000,290010,1580,19056.5449,26611.2715,-1.76695225251,-56.8291482605,0,0,
3160,3160,1.5800000,290010,1580,19067.2422,26608.3848,8.97537976306,-60.8604133912,0,0,
3161,3161,1.5805000,290011,1581,19076.498,26601.8965,16.1242526502,-68.1838474375,0,0,
3162,3162,1.5810000,290011,1581,19084.4316,26597.209,19.5404867802,-70.49970031,0,0,
3163,3163,1.5815000,290012,1582,19091.4023,26591.9199,23.3923383196,-73.6397880318,0,0,
3164,3164,1.5820000,290012,1582,19095.7305,26590.5957,20.0704189043,-70.8255959336,0,0,
3165,3165,1.5825000,290013,1583,19098.4941,26586.9902,17.0704198003,-71.1697125259,0,0,
3166,3166,1.5830000,290013,1583,19094.4082,26590.2363,8.79785562895,-64.4784137634,0,0,
3167,3167,1.5835000,290014,1584,19091.1621,26592.2793,3.68037082808,-62.3320557488,0,0,
3168,3168,1.5840000,290014,1584,19093.4473,26596.3672,4.26655755075,-59.3326913676,0,0,
3169,3169,1.5845000,290015,1585,19091.7637,26607.4238,0.869282980779,-51.952009453,0,0,
3170,3170,1.5850000,290015,1585,19090.0801,26626.7793,-2.41030512616,-37.3132378058,0,0,
3171,3171,1.5855000,290016,1586,19085.1523,26641.2012,-8.71744998607,-31.7575428232,0,0,
3172,3172,1.5860000,290016,1586,19084.4316,26647.8125,-9.171195891,-33.7177579656,0,0,
3173,3173,1.5865000,290017,1587,19085.2715,26648.2949,-7.16712689808,-39.3785383598,0,0,
3174,3174,1.5870000,290017,1587,19090.4414,26648.1738,-4.01419062736,-44.5378524471,0,0,
3175,3175,1.5875000,290018,1588,19091.6426,26650.2168,-5.35954370208,-44.231330213,0,0,
3176,3176,1.5880000,290018,1588,19088.998,26656.1074,-9.93321902411,-41.8472737669,0,0,
3177,3177,1.5885000,290019,1589,19092.0039,26659.7129,-8.54075917367,-41.4902620043,0,0,
3178,3178,1.5890000,290019,1589,19095.6094,26657.3105,-5.88401506999,-48.2348350653,0,0,
3179,3179,1.5895000,290020,1590,19101.1387,26649.7363,-1.20560915995,-56.3081689554,0,0,
3180,3180,1.5900000,290020,1590,19101.3789,26641.5625,-1.79861607917,-65.1373080836,0,0,
3181,3181,1.5905000,290021,1591,19101.7402,26626.6562,-4.67416326772,-74.8285156577,0,0,
3182,3182,1.5910000,290021,1591,19101.6191,26613.7949,-6.25857652089,-77.8492944789,0,0,
3183,3183,1.5915000,290022,1592,19095.3691,26602.1348,-12.3010539776,-79.4612726918,0,0,
3184,3184,1.5920000,290022,1592,19092.7246,26596.125,-16.7075295942,-75.0993509829,0,0,
3185,3185,1.5925000,290023,1593,19086.1133,26594.9238,-20.7309036253,-65.4410468017,0,0,
3186,3186,1.5930000,290023,1593,19068.9238,26586.9902,-31.9596970559,-61.4686755587,0,0,
3187,3187,1.5935000,290024,1594,19057.627,26581.1016,-35.6186875059,-53.627681195,0,0,
3188,3188,1.5940000,290024,1594,19057.0254,26575.0918,-28.2459452039,-45.8470568621,0,0,
3189,3189,1.5945000,290025,1595,19056.7832,26561.627,-21.1936306244,-43.3756652085,0,0,
3190,3190,1.5950000,290025,1595,19053.5391,26548.0449,-17.2601254875,-40.220275536,0,0,
3191,3191,1.5955000,290026,1596,19045.9668,26533.1406,-16.0787536473,-38.1614399768,0,0,
3192,3192,1.5960000,290026,1596,19053.6582,26517.5137,-4.60800821555,-33.3633349227,0,0,
3193,3193,1.5965000,290027,1597,19058.1074,26499.7246,0.717791275884,-29.436848906,0,0,
3194,3194,1.5970000,290027,1597,19051.375,26486.7422,-5.21791462286,-20.0039734798,0,0,
3195,3195,1.5975000,290028,1598,19043.5625,26472.1973,-12.2805753913,-11.1367221559,0,0,
3196,3196,1.5980000,290028,1598,19041.3984,26455.8496,-12.1155425004,-3.15251186909,0,0,
3197,3197,1.5985000,290029,1599,19040.7969,26437.0996,-8.31796282311,2.4687321929,0,0,
3198,3198,1.5990000,290029,1599,19038.7539,26426.2793,-3.34516687809,13.8215528726,0,0,
3199,3199,1.5995000,290030,1600,19040.6777,26416.6641,5.69663333379,25.4786449527,0,0,
3200,3200,1.6000000,290030,1600,19039.4746,26399.9551,6.8259187716,32.2287441148,0,0,
3201,3201,1.6005000,290031,1601,19041.5176,26386.9746,10.5737505392,41.5420415678,0,0,
3202,3202,1.6010000,290031,1601,19045.6055,26376.3965,14.7478026874,53.2755011199,0,0,
3203,3203,1.6015000,290032,1602,19045.8457,26364.6152,16.9504091409,61.8224815703,0,0,
3204,3204,1.6020000,290032,1602,19044.6445,26356.5625,14.9047193715,73.0951835508,0,0,
3205,3205,1.6025000,290033,1603,19043.3223,26342.9785,14.4875138111,77.5623563612,0,0,
3206,3206,1.6030000,290033,1603,19046.6875,26327.7129,19.0754232872,79.7526148212,0,0,
3207,3207,1.6035000,290034,1604,19046.5684,26312.9297,20.5675260155,80.2108193193,0,0,
3208,3208,1.6040000,290034,1604,19046.0859,26290.3301,20.702074092,73.5130557206,0,0,
3209,3209,1.6045000,290035,1605,19044.2832,26269.4141,19.7999743284,67.8029097123,0,0,
3210,3210,1.6050000,290035,1605,19044.043,26251.7441,19.7796709332,66.2245618659,0,0,
3211,3211,1.6055000,290036,1606,19044.043,26236.1191,19.4573102372,66.007309972,0,0,
3212,3212,1.6060000,290036,1606,19044.7637,26222.1738,19.7502108456,68.7840943037,0,0,
3213,3213,1.6065000,290037,1607,19042.3613,26210.6348,17.7422465237,74.9137682218,0,0,
3214,3214,1.6070000,290037,1607,19042.7207,26198.7363,15.7828917931,79.5322582238,0,0,
3215,3215,1.6075000,290038,1608,19040.4375,26190.6816,11.9492955969,87.8432584257,0,0,
3216,3216,1.6080000,290038,1608,19037.793,26192.4863,8.69317819896,100.484185242,0,0,
3217,3217,1.6085000,290039,1609,19036.7109,26191.4043,6.5901046614,107.978871151,0,0,
3218,3218,1.6090000,290039,1609,19032.7441,26193.3281,3.1399861202,114.415192849,0,0,
3219,3219,1.6095000,290040,1610,19029.7383,26188.3984,1.54316168198,114.44703705,0,0,
3220,3220,1.6100000,290040,1610,19032.5039,26190.2031,5.73472425736,116.498472895,0,0,
3221,3221,1.6105000,290041,1611,19031.4219,26193.0859,3.93037132934,119.936605521,0,0,
3222,3222,1.6110000,290041,1611,19030.8203,26199.5781,3.74390535094,124.831762407,0,0,
3223,3223,1.6115000,290042,1612,19028.1758,26202.9434,2.96392384214,122.576285737,0,0,
3224,3224,1.6120000,290042,1612,19024.209,26206.7891,-1.49776991219,117.473969526,0,0,
3225,3225,1.6125000,290043,1613,19020.9629,26206.5488,-1.91881057677,107.360095546,0,0,
3226,3226,1.6130000,290043,1613,19010.8672,26202.584,-5.9239729206,94.9708294848,0,0,
3227,3227,1.6135000,290044,1614,18998.3652,26201.7422,-11.9930395977,85.9610224383,0,0,
3228,3228,1.6140000,290044,1614,18991.2734,26192.2441,-13.3210995314,69.4571705151,0,0,
3229,3229,1.6145000,290045,1615,18984.7832,26181.3066,-13.5702797138,54.6825678711,0,0,
3230,3230,1.6150000,290045,1615,18973.7246,26171.8105,-16.57518897,41.7666210262,0,0,
3231,3231,1.6155000,290046,1616,18964.5879,26169.2871,-15.5743875574,34.5592464856,0,0,
3232,3232,1.6160000,290046,1616,18947.8809,26169.0469,-24.8214538442,30.533796125,0,0,
3233,3233,1.6165000,290047,1617,18934.1777,26150.2949,-29.9628438645,10.9926019252,0,0,
3234,3234,1.6170000,290047,1617,18928.168,26121.6875,-26.436840637,-14.4366283634,0,0,
3235,3235,1.6175000,290048,1618,18925.6426,26109.3047,-21.3002711516,-21.9110355368,0,0,
3236,3236,1.6180000,290048,1618,18927.0859,26096.2031,-13.6315554904,-28.566248237,0,0,
3237,3237,1.6185000,290049,1619,18924.9219,26079.375,-8.62117896019,-37.6584005733,0,0,
3238,3238,1.6190000,290049,1619,18921.4355,26067.1152,-2.91799738331,-44.0894027156,0,0,
3239,3239,1.6195000,290050,1620,18923.8398,26047.6406,7.24338461948,-55.62945196,0,0,
3240,3240,1.6200000,290050,1620,18926.0039,26029.25,12.7968884918,-61.6266692607,0,0,
3241,3241,1.6205000,290051,1621,18929.7305,26011.0996,18.0028669074,-67.1716472961,0,0,
3242,3242,1.6210000,290051,1621,18930.4512,25996.4355,18.8205890177,-68.1227723605,0,0,
3243,3243,1.6215000,290052,1622,18934.0566,25985.498,23.7926223706,-66.1438470222,0,0,
3244,3244,1.6220000,290052,1622,18933.9375,25977.8047,22.6405710933,-61.8380521054,0,0,
3245,3245,1.6225000,290053,1623,18930.9316,25968.7891,20.1601899269,-58.9125282164,0,0,
3246,3246,1.6230000,290053,1623,18933.3359,25959.4141,22.3870876028,-56.8272668766,0,0,
3247,3247,1.6235000,290054,1624,18938.1445,25955.8066,26.9030743544,-52.113572714,0,0,
3248,3248,1.6240000,290054,1624,18939.1074,25956.5293,26.523217629,-44.3998696226,0,0,
3249,3249,1.6245000,290055,1625,18939.9473,25955.5684,26.005409651,-41.6437659864,0,0,
3250,3250,1.6250000,290055,1625,18939.4668,25958.4512,23.4283796037,-37.1561069563,0,0,
3251,3251,1.6255000,290056,1626,18937.7832,25955.9277,19.5818561323,-39.4195397056,0,0,
3252,3252,1.6260000,290056,1626,18938.3848,25953.8828,17.8758541624,-40.5019509753,0,0,
3253,3253,1.6265000,290057,1627,18939.9473,25954.125,17.7188846931,-38.9136579534,0,0,
3254,3254,1.6270000,290057,1627,18939.707,25953.6426,13.3080013573,-38.6177880539,0,0,
3255,3255,1.6275000,290058,1628,18937.543,25954.8457,8.25327803628,-36.7818156526,0,0,
3256,3256,1.6280000,290058,1628,18938.9863,25962.2969,6.98525562572,-33.6356845834,0,0,
3257,3257,1.6285000,290059,1629,18939.3457,25975.0391,3.94273378376,-26.5936198788,0,0,
3258,3258,1.6290000,290059,1629,18938.1445,25972.2734,0.877038191158,-35.3996267708,0,0,
3259,3259,1.6295000,290060,1630,18943.6738,25971.0723,3.70181677967,-39.2898326892,0,0,
3260,3260,1.6300000,290060,1630,18943.6738,25976.7207,0.837907143288,-40.009462461,0,0,
3261,3261,1.6305000,290061,1631,18942.4707,25983.2129,-3.72744530256,-38.4716759625,0,0,
3262,3262,1.6310000,290061,1631,18940.5488,25983.6934,-7.57255598939,-42.2378956515,0,0,
3263,3263,1.6315000,290062,1632,18935.7402,25986.459,-11.9827846913,-44.4694646292,0,0,
3264,3264,1.6320000,290062,1632,18939.3457,25985.6172,-10.7962152868,-50.6277017383,0,0,
3265,3265,1.6325000,290063,1633,18942.7129,25990.3047,-8.24871275333,-50.852607101,0,0,
3266,3266,1.6330000,290063,1633,18939.2266,25993.4297,-9.33858093797,-50.8943025563,0,0,
3267,3267,1.6335000,290064,1634,18937.4238,25994.9922,-9.45712874158,-52.1828222417,0,0,
3268,3268,1.6340000,290064,1634,18938.625,25989.7031,-9.04286689047,-57.3181451473,0,0,
3269,3269,1.6345000,290065,1635,18943.1934,25984.6562,-6.25783524228,-59.4659263759,0,0,
3270,3270,1.6350000,290065,1635,18941.0293,25972.7559,-8.5014590767,-66.8991494159,0,0,
3271,3271,1.6355000,290066,1636,18946.9199,25968.1875,-3.18340709617,-68.1447893863,0,0,
3272,3272,1.6360000,290066,1636,18948.6016,25958.5723,-4.85861937937,-71.6424422152,0,0,
3273,3273,1.6365000,290067,1637,18947.1602,25953.5234,-10.1273773602,-66.6633025879,0,0,
3274,3274,1.6370000,290067,1637,18946.4395,25943.0645,-14.7079667288,-64.8930275583,0,0,
3275,3275,1.6375000,290068,1638,18946.7988,25938.7363,-19.1959204037,-59.6681149588,0,0,
3276,3276,1.6380000,290068,1638,18952.6895,25929.002,-19.2711036283,-58.2485230811,0,0,
3277,3277,1.6385000,290069,1639,18946.9199,25920.2266,-27.1546256155,-54.8200086932,0,0,
3278,3278,1.6390000,290069,1639,18946.6777,25916.2598,-26.811603913,-49.7854535169,0,0,
3279,3279,1.6395000,290070,1640,18947.2793,25915.0566,-26.2248023802,-41.4949520633,0,0,
3280,3280,1.6400000,290070,1640,18949.084,25908.4473,-26.5514372586,-36.4452064392,0,0,
3281,3281,1.6405000,290071,1641,18951.7285,25904,-26.5490603503,-30.5463309,0,0,
3282,3282,1.6410000,290071,1641,18951.3672,25896.3066,-28.8381424014,-27.720323534,0,0,
3283,3283,1.6415000,290072,1642,18949.6836,25888.373,-30.1287559368,-25.7639392144,0,0,
3284,3284,1.6420000,290072,1642,18949.2031,25880.0781,-30.6213684817,-24.1904100452,0,0,
3285,3285,1.6425000,290073,1643,18950.5254,25871.9062,-27.7467739613,-21.3474786483,0,0,
3286,3286,1.6430000,290073,1643,18946.7988,25862.8906,-29.8015139373,-18.7736389822,0,0,
3287,3287,1.6435000,290074,1644,18948.3613,25852.9141,-26.1148971082,-18.7714560609,0,0,
3288,3288,1.6440000,290074,1644,18943.4336,25846.9043,-27.5511225945,-14.8608075104,0,0,
3289,3289,1.6445000,290075,1645,18941.2695,25840.291,-25.5267737769,-12.3917308988,0,0,
3290,3290,1.6450000,290075,1645,18939.4668,25832.1191,-23.2111123209,-11.6820009427,0,0,
3291,3291,1.6455000,290076,1646,18941.0293,25828.5137,-18.0431235373,-6.35007546062,0,0,
3292,3292,1.6460000,290076,1646,18941.1504,25820.3379,-14.8452193731,-4.21278693285,0,0,
3293,3293,1.6465000,290077,1647,18939.8262,25817.2129,-12.3326615946,3.02267183686,0,0,
3294,3294,1.6470000,290077,1647,18939.5879,25806.1543,-10.4743343064,3.52989355142,0,0,
3295,3295,1.6475000,290078,1648,18935.8613,25790.5293,-10.5696052808,1.5088677223,0,0,
3296,3296,1.6480000,290078,1648,18937.4238,25778.9902,-6.22212597511,0.946179982313,0,0,
3297,3297,1.6485000,290079,1649,18934.1777,25774.9004,-6.54992992012,7.43317195626,0,0,
3298,3298,1.6490000,290079,1649,18935.3809,25769.6152,-1.67728917584,14.3227844944,0,0,
3299,3299,1.6495000,290080,1650,18932.7363,25763.123,-1.38626811514,21.5989883331,0,0,
3300,3300,1.6500000,290080,1650,18935.3809,25756.0312,4.23635888266,24.6248255054,0,0,
3301,3301,1.6505000,290081,1651,18933.3359,25751.9434,4.78451121531,31.6977372263,0,0,
3302,3302,1.6510000,290081,1651,18933.6973,25755.3105,8.17973435274,45.3635429356,0,0,
3303,3303,1.6515000,290082,1652,18932.4941,25752.0625,11.3882037674,50.5907685695,0,0,
3304,3304,1.6520000,290082,1652,18928.4082,25749.2988,8.97526802442,55.2283146927,0,0,
3305,3305,1.6525000,290083,1653,18932.6152,25747.8574,15.5929809881,59.7154511269,0,0,
3306,3306,1.6530000,290083,1653,18934.1777,25746.6543,22.1378780294,65.1295946943,0,0,
3307,3307,1.6535000,290084,1654,18931.0527,25751.1016,23.050525929,74.3679848067,0,0,
3308,3308,1.6540000,290084,1654,18928.5293,25751.9434,22.4074870423,80.9353764819,0,0,
3309,3309,1.6545000,290085,1655,18928.2871,25752.7832,23.1345216427,87.0665597015,0,0,
3310,3310,1.6550000,290085,1655,18926.9668,25757.3516,24.8972608324,95.1671284638,0,0,
3311,3311,1.6555000,290086,1656,18925.5234,25757.7129,25.5080438191,94.9141995302,0,0,
3312,3312,1.6560000,290086,1656,18922.5176,25761.7988,23.5737816875,98.3777074763,0,0,
3313,3313,1.6565000,290087,1657,18920.5957,25767.0879,22.4693536947,102.944177517,0,0,
3314,3314,1.6570000,290087,1657,18920.3535,25772.6172,22.1873988697,107.481886619,0,0,
3315,3315,1.6575000,290088,1658,18921.4355,25781.3926,21.5368170606,109.664270596,0,0,
3316,3316,1.6580000,290088,1658,18920.7148,25792.8125,17.8576078185,113.353214594,0,0,
3317,3317,1.6585000,290089,1659,18915.4258,25806.0332,14.3747639683,116.208289632,0,0,
3318,3318,1.6590000,290089,1659,18912.3008,25818.1738,14.0898119281,112.733170312,0,0,
3319,3319,1.6595000,290090,1660,18911.2188,25831.877,14.964192319,109.428472242,0,0,
3320,3320,1.6600000,290090,1660,18911.7012,25846.1816,15.174442597,107.376510763,0,0,
3321,3321,1.6605000,290091,1661,18909.5371,25867.2188,12.5570523877,107.814992836,0,0,
3322,3322,1.6610000,290091,1661,18907.373,25881.5215,10.8819786661,100.629909401,0,0,
3323,3323,1.6615000,290092,1662,18906.8926,25892.3418,12.187653933,88.7487768763,0,0,
3324,3324,1.6620000,290092,1662,18903.7676,25903.7598,10.2812418178,76.7781690136,0,0,
3325,3325,1.6625000,290093,1663,18906.8926,25917.8223,14.6312886032,67.3047291168,0,0,
3326,3326,1.6630000,290093,1663,18906.7715,25925.5156,15.7175251253,52.3683568148,0,0,
3327,3327,1.6635000,290094,1664,18906.291,25934.8906,15.7963997279,37.8998862283,0,0,
3328,3328,1.6640000,290094,1664,18904.8496,25942.2246,16.3238271592,21.7185768902,0,0,
3329,3329,1.6645000,290095,1665,18902.8047,25951,15.9909188594,7.2362617461,0,0,
3330,3330,1.6650000,290095,1665,18901.002,25955.8066,15.5846822408,-9.74496787313,0,0,
3331,3331,1.6655000,290096,1666,18901.123,25961.8184,16.1304104242,-24.4535913374,0,0,
3332,3332,1.6660000,290096,1666,18901.7227,25970.3516,16.7766023681,-34.123305387,0,0,
3333,3333,1.6665000,290097,1667,18900.7617,25981.5312,16.5672001655,-41.133382627,0,0,
3334,3334,1.6670000,290097,1667,18899.7988,25989.3438,14.7993064449,-48.8099169402,0,0,
3335,3335,1.6675000,290098,1668,18899.3184,25996.6777,14.7327462241,-55.0027784442,0,0,
3336,3336,1.6680000,290098,1668,18899.6797,26003.8887,13.9907793544,-63.8570895682,0,0,
3337,3337,1.6685000,290099,1669,18897.3965,26017.3516,11.5054792205,-67.6104427053,0,0,
3338,3338,1.6690000,290099,1669,18897.0352,26028.6484,10.9707614628,-71.1071488914,0,0,
3339,3339,1.6695000,290100,1670,18901.002,26040.0684,13.6968370318,-72.3168253707,0,0,
3340,3340,1.6700000,290100,1670,18899.3184,26050.2871,10.7307826447,-76.7228187123,0,0,
3341,3341,1.6705000,290101,1671,18897.1543,26061.4668,8.05140660294,-78.7605266522,0,0,
3342,3342,1.6710000,290101,1671,18900.1602,26068.4375,9.97922579851,-83.7904936253,0,0,
3343,3343,1.6715000,290102,1672,18902.8047,26073.4844,12.3648519298,-88.6029669216,0,0,
3344,3344,1.6720000,290102,1672,18904.8496,26080.0957,11.6009747356,-90.956404481,0,0,
3345,3345,1.6725000,290103,1673,18909.416,26082.2598,12.5400733079,-96.3718790292,0,0,
3346,3346,1.6730000,290103,1673,18908.0938,26090.3125,11.103740997,-93.923634653,0,0,
3347,3347,1.6735000,290104,1674,18907.1328,26094.0391,10.1099847143,-95.1227000787,0,0,
3348,3348,1.6740000,290104,1674,18906.5312,26102.2129,7.58868135949,-88.9918048332,0,0,
3349,3349,1.6745000,290105,1675,18910.2578,26105.5781,7.78734295605,-85.8281291642,0,0,
3350,3350,1.6750000,290105,1675,18912.3008,26112.0703,7.97129922844,-79.6210438778,0,0,
3351,3351,1.6755000,290106,1676,18916.0273,26117.7188,8.511025983,-75.5070164144,0,0,
3352,3352,1.6760000,290106,1676,18916.0273,26119.1621,4.83028959462,-73.7803513078,0,0,
3353,3353,1.6765000,290107,1677,18916.0273,26126.9766,0.941524915493,-64.7217705514,0,0,
3354,3354,1.6770000,290107,1677,18914.9453,26121.5645,-4.29232269344,-65.4233877661,0,0,
3355,3355,1.6775000,290108,1678,18915.1855,26126.8535,-9.10742246966,-58.6911371914,0,0,
3356,3356,1.6780000,290108,1678,18916.1465,26127.3359,-13.6377169373,-55.174148896,0,0,
3357,3357,1.6785000,290109,1679,18919.9941,26129.3809,-11.8391515314,-49.85783073,0,0,
3358,3358,1.6790000,290109,1679,18917.2285,26131.7832,-15.6976570346,-46.090616114,0,0,
3359,3359,1.6795000,290110,1680,18913.3828,26135.0293,-20.5948668814,-41.0312370503,0,0,
3360,3360,1.6800000,290110,1680,18909.1758,26139.4766,-26.504085359,-32.9201402557,0,0,
3361,3361,1.6805000,290111,1681,18909.0566,26138.7559,-27.9317282783,-31.2199311385,0,0,
3362,3362,1.6810000,290111,1681,18912.541,26137.6738,-25.7085505094,-27.4229116222,0,0,
3363,3363,1.6815000,290112,1682,18913.9844,26138.3965,-24.7332599619,-21.6494356554,0,0,
3364,3364,1.6820000,290112,1682,18913.8633,26136.7109,-25.331704665,-18.1350522123,0,0,
