record_index,sequence,time_s,tick_ms,tick_elapsed_ms,ch1_raw_uV,ch2_raw_uV,ch1_filtered_uV,ch2_filtered_uV,sequence_gap_before,byte_offset_adjustment,imputed_fields
2000,2000,1.0000000,252125,1000,18816.9805,25696.8906,2.2544329516,34.693408924,0,0,
2001,2001,1.0005000,252125,1000,18817.0996,25691.8418,2.44381831742,40.2472266437,0,0,
2002,2002,1.0010000,252126,1001,18816.8613,25688.4766,0.477844661775,47.6686405017,0,0,
2003,2003,1.0015000,252126,1001,18812.0527,25681.2656,-6.47031121954,52.5304228087,0,0,
2004,2004,1.0020000,252127,1002,18803.7578,25671.0469,-15.0952967378,54.4059829293,0,0,
2005,2005,1.0025000,252127,1002,18801.834,25660.7109,-13.0298970142,57.1359034342,0,0,
2006,2006,1.0030000,252128,1003,18824.793,25649.1699,11.4039574653,56.1347543427,0,0,
2007,2007,1.0035000,252128,1003,18844.9863,25640.3965,29.3837191349,57.5902941085,0,0,
2008,2008,1.0040000,252129,1004,18853.1621,25638.3516,32.9568114993,66.853089147,0,0,
2009,2009,1.0045000,252129,1004,18842.3438,25634.0254,19.8536890783,72.9568222797,0,0,
2010,2010,1.0050000,252130,1005,18833.4473,25636.7891,11.6286079881,80.3801612073,0,0,
2011,2011,1.0055000,252130,1005,18829.8418,25635.1074,9.62647395998,81.3494731413,0,0,
2012,2012,1.0060000,252131,1006,18829.9629,25628.6152,10.4095863596,78.8448746324,0,0,
2013,2013,1.0065000,252131,1006,18819.0234,25617.5566,-1.07261655603,74.1585392262,0,0,
2014,2014,1.0070000,252132,1007,18814.8164,25611.3066,-6.48850380816,73.4342127485,0,0,
2015,2015,1.0075000,252132,1007,18812.4121,25601.3301,-6.19901442621,69.5498678092,0,0,
2016,2016,1.0080000,252133,1008,18811.5723,25593.0371,-4.36697989614,67.0579152054,0,0,
2017,2017,1.0085000,252133,1008,18814.9375,25591.2324,1.03941616062,70.390230042,0,0,
2018,2018,1.0090000,252134,1009,18818.0625,25593.877,7.73656390491,75.8172329945,0,0,
2019,2019,1.0095000,252134,1009,18818.543,25591.2324,12.0039425369,73.4746181221,0,0,
2020,2020,1.0100000,252135,1010,18832.0059,25587.0254,25.2727343465,68.3235940048,0,0,
2021,2021,1.0105000,252135,1010,18850.3965,25582.5781,38.2913846423,63.124410534,0,0,
2022,2022,1.0110000,252136,1011,18875.3984,25574.8848,55.8857494097,56.6621223432,0,0,
2023,2023,1.0115000,252136,1011,18887.7793,25573.6816,57.2774559191,56.0731609788,0,0,
2024,2024,1.0120000,252137,1012,18874.7988,25574.2832,34.0848081475,56.4086979629,0,0,
2025,2025,1.0125000,252137,1012,18867.8262,25576.9297,18.8480074822,56.9479444074,0,0,
2026,2026,1.0130000,252138,1013,18872.3926,25574.0449,11.0570918778,50.0966944904,0,0,
2027,2027,1.0135000,252138,1013,18872.5137,25573.084,-0.328271139157,45.4282089881,0,0,
2028,2028,1.0140000,252139,1014,18866.2637,25571.6406,-8.87007714105,38.1581183507,0,0,
2029,2029,1.0145000,252139,1014,18864.0996,25575.2441,-10.4329226695,37.108654394,0,0,
2030,2030,1.0150000,252140,1015,18859.0508,25578.4922,-12.2975578569,35.7068593284,0,0,
2031,2031,1.0155000,252140,1015,18848.834,25575.6074,-16.7478881071,29.25863011,0,0,
2032,2032,1.0160000,252141,1016,18840.6602,25570.4375,-21.6466985638,19.8886600912,0,0,
2033,2033,1.0165000,252141,1016,18829.7207,25568.9941,-30.2140548554,12.7459280093,0,0,
2034,2034,1.0170000,252142,1017,18833.9277,25565.0293,-25.1403676691,4.47839467606,0,0,
2035,2035,1.0175000,252142,1017,18854.3633,25557.6953,-8.74523636906,-4.60626547086,0,0,
2036,2036,1.0180000,252143,1018,18864.9414,25557.5762,-6.54914407584,-5.27084891532,0,0,
2037,2037,1.0185000,252143,1018,18860.1328,25559.5,-16.5639500339,-5.60420166174,0,0,
2038,2038,1.0190000,252144,1019,18850.877,25559.6191,-24.3972959317,-7.03899046259,0,0,
2039,2039,1.0195000,252144,1019,18848.4746,25561.7832,-21.2621329897,-8.78050420203,0,0,
2040,2040,1.0200000,252145,1020,18851.5996,25561.1816,-11.4790790479,-14.2633264236,0,0,
2041,2041,1.0205000,252145,1020,18850.1562,25555.291,-10.7924323246,-24.2788765429,0,0,
2042,2042,1.0210000,252146,1021,18849.0742,25554.5703,-11.1668242401,-28.2179311821,0,0,
2043,2043,1.0215000,252146,1021,18845.3477,25559.3809,-14.0217685453,-25.5827999821,0,0,
2044,2044,1.0220000,252147,1022,18835.7324,25560.4609,-20.5495631816,-26.5281661343,0,0,
2045,2045,1.0225000,252147,1022,18827.7988,25560.9434,-22.2899251173,-27.5321868007,0,0,
2046,2046,1.0230000,252148,1023,18827.0762,25563.2266,-19.586521362,-29.2366750856,0,0,
2047,2047,1.0235000,252148,1023,18837.5352,25560.3418,-6.91613868456,-35.9583028724,0,0,
2048,2048,1.0240000,252149,1024,18846.0684,25550.002,3.40207216311,-46.9302416196,0,0,
2049,2049,1.0245000,252149,1024,18857.9707,25547.8379,17.5307858857,-48.574638352,0,0,
2050,2050,1.0250000,252150,1025,18859.8926,25542.1895,21.1781836333,-56.3962097816,0,0,
2051,2051,1.0255000,252150,1025,18857.248,25540.748,19.6530904398,-59.3266123998,0,0,
2052,2052,1.0260000,252151,1026,18856.0469,25541.3496,18.2860131875,-58.2476834818,0,0,
2053,2053,1.0265000,252151,1026,18856.7676,25540.5078,17.8190726017,-56.439275972,0,0,
2054,2054,1.0270000,252152,1027,18866.7441,25537.1406,22.1206239472,-57.9424694033,0,0,
2055,2055,1.0275000,252152,1027,18875.7598,25537.623,26.438687291,-55.0413271401,0,0,
2056,2056,1.0280000,252153,1028,18884.5332,25542.4297,28.9841285667,-49.4774672561,0,0,
2057,2057,1.0285000,252153,1028,18891.1465,25543.5137,28.2166060968,-48.4446187373,0,0,
2058,2058,1.0290000,252154,1029,18896.916,25546.877,28.2213098568,-46.5113503279,0,0,
2059,2059,1.0295000,252154,1029,18904.9688,25544.9551,30.6069108657,-49.4738616312,0,0,
2060,2060,1.0300000,252155,1030,18913.502,25540.748,29.5702673112,-54.0871405263,0,0,
2061,2061,1.0305000,252155,1030,18923.2402,25520.4316,27.1058626099,-70.3313140503,0,0,
2062,2062,1.0310000,252156,1031,18914.2246,25519.7129,10.129255262,-65.3409238643,0,0,
2063,2063,1.0315000,252156,1031,18884.7754,25526.3223,-19.5248365619,-55.5883321556,0,0,
2064,2064,1.0320000,252157,1032,18852.9199,25533.416,-43.0825037809,-46.8476870095,0,0,
2065,2065,1.0325000,252157,1032,18842.3438,25536.541,-45.6710900451,-43.1780887101,0,0,
2066,2066,1.0330000,252158,1033,18850.2754,25536.0605,-37.3650941661,-43.1449310373,0,0,
2067,2067,1.0335000,252158,1033,18868.5469,25539.9062,-21.8659550801,-39.1754096024,0,0,
2068,2068,1.0340000,252159,1034,18874.3164,25541.5879,-13.3339036838,-38.8342145972,0,0,
2069,2069,1.0345000,252159,1034,18871.1914,25540.9863,-12.4836634104,-39.35082928,0,0,
2070,2070,1.0350000,252160,1035,18869.1484,25534.498,-8.90153558374,-43.2508287259,0,0,
2071,2071,1.0355000,252160,1035,18873.8359,25522.4766,1.29537087979,-48.5340478163,0,0,
2072,2072,1.0360000,252161,1036,18867.7051,25514.3027,-2.12532051786,-49.4289090497,0,0,
2073,2073,1.0365000,252161,1036,18878.1641,25510.4551,6.78208434662,-47.6080836033,0,0,
2074,2074,1.0370000,252162,1037,18884.5332,25503.4844,7.36715551446,-46.9134729585,0,0,
2075,2075,1.0375000,252162,1037,18887.7793,25488.9395,1.48841587288,-49.977845654,0,0,
2076,2076,1.0380000,252163,1038,18888.502,25465.2598,-6.26523387496,-58.5745069238,0,0,
2077,2077,1.0385000,252163,1038,18894.1504,25437.252,-5.51694159109,-68.3944296658,0,0,
2078,2078,1.0390000,252164,1039,18900.041,25424.2715,-1.15814553897,-61.244971598,0,0,
2079,2079,1.0395000,252164,1039,18894.5098,25425.5938,-5.29716578359,-43.6897077912,0,0,
2080,2080,1.0400000,252165,1040,18894.1504,25412.373,-3.4483700427,-40.1518867947,0,0,
2081,2081,1.0405000,252165,1040,18898.959,25400.834,-0.0425294657026,-34.0334225276,0,0,
2082,2082,1.0410000,252166,1041,18903.2871,25399.2676,0.997862921194,-20.0259368953,0,0,
2083,2083,1.0415000,252166,1041,18906.7715,25403.8359,0.92243519485,-1.9715490895,0,0,
2084,2084,1.0420000,252167,1042,18911.8203,25418.8613,3.09548522188,22.961352656,0,0,
2085,2085,1.0425000,252167,1042,18911.3398,25418.0215,1.24328255648,31.4641542462,0,0,
2086,2086,1.0430000,252168,1043,18905.209,25416.2188,-7.94374176999,36.1406961716,0,0,
2087,2087,1.0435000,252168,1043,18901.6035,25411.4082,-14.3371608549,38.0530516518,0,0,
2088,2088,1.0440000,252169,1044,18908.2129,25398.4277,-9.64655481001,35.1110910879,0,0,
2089,2089,1.0445000,252169,1044,18919.0332,25399.9902,-0.52398285366,43.9844008986,0,0,
2090,2090,1.0450000,252170,1045,18929.4902,25398.9082,8.50360602084,46.7910672512,0,0,
2091,2091,1.0455000,252170,1045,18932.4941,25409.0059,9.8551361436,57.2763915215,0,0,
2092,2092,1.0460000,252171,1046,18928.2871,25410.3281,3.77682686603,59.3489142012,0,0,
2093,2093,1.0465000,252171,1046,18920.7148,25405.3984,-4.83498431084,57.4219937516,0,0,
2094,2094,1.0470000,252172,1047,18919.873,25400.1113,-9.84871727802,54.7978297994,0,0,
2095,2095,1.0475000,252172,1047,18912.1816,25392.416,-17.5042482137,50.4141206785,0,0,
2096,2096,1.0480000,252173,1048,18914.4648,25385.3262,-15.4567323694,46.0366345123,0,0,
2097,2097,1.0485000,252173,1048,18909.1758,25390.7344,-19.6377946178,52.5325202969,0,0,
2098,2098,1.0490000,252174,1049,18902.8047,25387.4902,-21.7884655371,49.3401901529,0,0,
2099,2099,1.0495000,252174,1049,18903.7676,25385.6875,-16.5338441979,48.1358458846,0,0,
2100,2100,1.0500000,252175,1050,18903.166,25379.5566,-15.2855342671,43.192111101,0,0,
2101,2101,1.0505000,252175,1050,18903.2871,25374.9902,-14.9206055659,42.866045366,0,0,
2102,2102,1.0510000,252176,1051,18897.7559,25380.877,-14.94565154,48.6409746554,0,0,
2103,2103,1.0515000,252176,1051,18894.6309,25378.9551,-8.47955578804,44.5609800421,0,0,
2104,2104,1.0520000,252177,1052,18897.877,25374.2676,4.23013241582,38.4276468804,0,0,
2105,2105,1.0525000,252177,1052,18894.8711,25373.5469,4.83040949164,36.4492861396,0,0,
2106,2106,1.0530000,252178,1053,18897.2754,25375.3496,2.47690823387,36.7280981082,0,0,
2107,2107,1.0535000,252178,1053,18902.5645,25378.7129,1.20111321163,37.0304242259,0,0,
2108,2108,1.0540000,252179,1054,18908.6953,25379.0762,7.65689533783,33.4749704103,0,0,
2109,2109,1.0545000,252179,1054,18913.623,25380.2793,14.1125676659,31.6394492334,0,0,
2110,2110,1.0550000,252180,1055,18914.7051,25384.125,17.3540845141,33.3378212134,0,0,
2111,2111,1.0555000,252180,1055,18913.8633,25392.416,18.4957062027,39.9089868119,0,0,
2112,2112,1.0560000,252181,1056,18906.4121,25406,13.3650057709,47.5625249101,0,0,
2113,2113,1.0565000,252181,1056,18901.7227,25421.9863,7.22960135278,52.4180432703,0,0,
2114,2114,1.0570000,252182,1057,18899.7988,25432.5645,2.70758895202,51.8813502817,0,0,
2115,2115,1.0575000,252182,1057,18901.002,25437.252,-0.710454179412,47.8024746965,0,0,
2116,2116,1.0580000,252183,1058,18903.6465,25442.3027,-2.45377476378,45.0430314109,0,0,
2117,2117,1.0585000,252183,1058,18900.2812,25442.7832,-6.96738994612,37.8109233944,0,0,
2118,2118,1.0590000,252184,1059,18898.959,25445.5469,-5.90167424726,31.0126268768,0,0,
2119,2119,1.0595000,252184,1059,18901.002,25446.5078,1.09628836233,19.3720595484,0,0,
2120,2120,1.0600000,252185,1060,18901.123,25454.8027,5.23740965458,16.9931519088,0,0,
2121,2121,1.0605000,252185,1060,18906.0508,25455.6426,9.85351382989,8.08040452645,0,0,
2122,2122,1.0610000,252186,1061,18908.6953,25464.7793,10.7679835085,4.71007843441,0,0,
2123,2123,1.0615000,252186,1061,18909.2949,25472.3516,9.80860028965,-0.686666728817,0,0,
2124,2124,1.0620000,252187,1062,18907.252,25478.7246,7.43979409896,-7.68518189128,0,0,
2125,2125,1.0625000,252187,1062,18909.2949,25485.2129,10.5083746819,-10.6882572605,0,0,
2126,2126,1.0630000,252188,1063,18910.2578,25486.7754,10.5231476912,-18.8998185653,0,0,
2127,2127,1.0635000,252188,1063,18910.8574,25490.7441,8.82386333811,-23.2692780459,0,0,
2128,2128,1.0640000,252189,1064,18911.5801,25497.4746,6.88816926768,-22.0873318978,0,0,
2129,2129,1.0645000,252189,1064,18920.4746,25502.041,12.6124669006,-26.2664396402,0,0,
2130,2130,1.0650000,252190,1065,18921.916,25502.041,12.7040357715,-34.9955747177,0,0,
2131,2131,1.0655000,252190,1065,18921.916,25499.2793,12.907923476,-46.8126011846,0,0,
2132,2132,1.0660000,252191,1066,18927.4473,25495.3125,17.6295955046,-54.9242665931,0,0,
2133,2133,1.0665000,252191,1066,18926.9668,25491.3438,16.1134734093,-58.6426775168,0,0,
2134,2134,1.0670000,252192,1067,18922.2773,25499.2793,7.25308339171,-51.8565114652,0,0,
2135,2135,1.0675000,252192,1067,18920.5957,25517.1875,4.90503479745,-37.5912514767,0,0,
2136,2136,1.0680000,252193,1068,18918.5527,25534.0156,0.840305637828,-27.8177496147,0,0,
2137,2137,1.0685000,252193,1068,18916.0273,25535.459,-1.64392832748,-34.3261324003,0,0,
2138,2138,1.0690000,252194,1069,18912.1816,25532.6953,-3.19968970428,-42.2580450012,0,0,
2139,2139,1.0695000,252194,1069,18908.9355,25531.9746,-4.67337217916,-46.4646520587,0,0,
2140,2140,1.0700000,252195,1070,18899.5605,25540.0254,-12.1604097896,-41.7137032283,0,0,
2141,2141,1.0705000,252195,1070,18894.8711,25551.6855,-15.5888197102,-32.7005341973,0,0,
2142,2142,1.0710000,252196,1071,18899.7988,25550.123,-6.3245060578,-39.1899227564,0,0,
2143,2143,1.0715000,252196,1071,18905.9297,25552.5293,5.0882025205,-41.0293219477,0,0,
2144,2144,1.0720000,252197,1072,18911.7012,25552.5293,14.4398110979,-43.593648345,0,0,
2145,2145,1.0725000,252197,1072,18912.541,25550.2441,14.9761658277,-47.4002321237,0,0,
2146,2146,1.0730000,252198,1073,18917.2285,25551.9277,11.4730650172,-46.7255696354,0,0,
2147,2147,1.0735000,252198,1073,18916.5078,25554.9316,2.06054899059,-45.1369956335,0,0,
2148,2148,1.0740000,252199,1074,18915.0645,25564.5469,-1.06259288574,-37.8900860305,0,0,
2149,2149,1.0745000,252199,1074,18914.7051,25566.3516,-0.806937588977,-37.0707353412,0,0,
2150,2150,1.0750000,252200,1075,18914.4648,25568.3926,1.06305163536,-34.6275204664,0,0,
2151,2151,1.0755000,252200,1075,18915.1855,25568.3926,3.76671565295,-32.466704447,0,0,
2152,2152,1.0760000,252201,1076,18910.6191,25578.7324,2.20146610218,-23.329509351,0,0,
2153,2153,1.0765000,252201,1076,18910.0176,25579.9355,0.2700267189,-24.8057686944,0,0,
2154,2154,1.0770000,252202,1077,18909.0566,25584.3809,-3.57760754446,-20.8263596028,0,0,
2155,2155,1.0775000,252202,1077,18906.4121,25587.3848,-10.4731751637,-15.1807802241,0,0,
2156,2156,1.0780000,252203,1078,18903.166,25594.5996,-16.8742342684,-5.4322047781,0,0,
2157,2157,1.0785000,252203,1078,18897.2754,25602.291,-21.6851534765,4.03326022298,0,0,
2158,2158,1.0790000,252204,1079,18888.3809,25608.3027,-25.7389057241,8.99550675237,0,0,
2159,2159,1.0795000,252204,1079,18879.4863,25617.5566,-26.5548831906,13.3179708969,0,0,
2160,2160,1.0800000,252205,1080,18870.4707,25623.9277,-26.5129374217,15.0838158832,0,0,
2161,2161,1.0805000,252205,1080,18861.0957,25628.7363,-29.0779227496,16.6169429586,0,0,
2162,2162,1.0810000,252206,1081,18858.5703,25630.6582,-25.2983673088,12.670429503,0,0,
2163,2163,1.0815000,252206,1081,18850.7578,25635.2266,-25.5195687221,11.6258003594,0,0,
2164,2164,1.0820000,252207,1082,18841.9824,25642.9199,-24.8790292912,13.0003184228,0,0,
2165,2165,1.0825000,252207,1082,18827.5586,25643.1621,-27.5093233675,10.8402100476,0,0,
2166,2166,1.0830000,252208,1083,18812.1719,25644.7246,-30.5829111982,10.2853741123,0,0,
2167,2167,1.0835000,252208,1083,18806.6426,25647.9688,-25.1617303596,11.6984698835,0,0,
2168,2168,1.0840000,252209,1084,18799.5508,25653.377,-21.6709579323,16.671429543,0,0,
2169,2169,1.0845000,252209,1084,18794.623,25663.4746,-17.014980634,22.6139673541,0,0,
2170,2170,1.0850000,252210,1085,18788.1309,25662.873,-11.1743028707,18.4949440837,0,0,
2171,2171,1.0855000,252210,1085,18781.8809,25664.7969,-4.14463674872,15.866820911,0,0,
2172,2172,1.0860000,252211,1086,18776.3516,25672.0078,2.03537936887,20.1692906972,0,0,
2173,2173,1.0865000,252211,1086,18772.0254,25673.6934,9.34815676019,21.2346530038,0,0,
2174,2174,1.0870000,252212,1087,18769.6211,25672.4902,14.6955288678,17.6551437233,0,0,
2175,2175,1.0875000,252212,1087,18763.6113,25664.3145,17.8379897565,7.99143819169,0,0,
2176,2176,1.0880000,252213,1088,18760.4863,25659.2676,21.5128751333,2.53386382934,0,0,
2177,2177,1.0885000,252213,1088,18755.1973,25662.752,23.8541613946,6.51887373729,0,0,
2178,2178,1.0890000,252214,1089,18750.8691,25665.6387,27.9374269687,10.8323625733,0,0,
2179,2179,1.0895000,252214,1089,18750.748,25668.8828,33.8258029779,14.7800828331,0,0,
2180,2180,1.0900000,252215,1090,18750.6289,25668.041,38.1765761259,14.0001280035,0,0,
2181,2181,1.0905000,252215,1090,18746.9023,25672.6094,36.4901226887,18.9454360807,0,0,
2182,2182,1.0910000,252216,1091,18742.5762,25674.5332,35.8283155833,20.5109416578,0,0,
2183,2183,1.0915000,252216,1091,18741.1328,25680.5449,39.2755345043,24.3738763545,0,0,
2184,2184,1.0920000,252217,1092,18738.248,25690.1582,40.8617208507,31.1085418903,0,0,
2185,2185,1.0925000,252217,1092,18733.4395,25699.1738,38.6323606431,35.8968992307,0,0,
2186,2186,1.0930000,252218,1093,18737.8867,25698.0938,37.7124138933,30.5543004511,0,0,
2187,2187,1.0935000,252218,1093,18735.9629,25690.1582,30.5197033373,19.7104336529,0,0,
2188,2188,1.0940000,252219,1094,18737.4062,25685.834,31.0890927882,12.7115732802,0,0,
2189,2189,1.0945000,252219,1094,18739.4492,25680.9043,32.7698450687,8.49471665995,0,0,
2190,2190,1.0950000,252220,1095,18744.8594,25681.0234,37.3885810064,10.0422482402,0,0,
2191,2191,1.0955000,252220,1095,18747.623,25683.0684,38.3565926462,14.2352589637,0,0,
2192,2192,1.0960000,252221,1096,18746.6621,25685.7109,36.5853758181,15.142223051,0,0,
2193,2193,1.0965000,252221,1096,18746.4219,25686.6738,31.1302577724,14.4250226007,0,0,
2194,2194,1.0970000,252222,1097,18749.0664,25687.5156,26.6675482836,14.7570964223,0,0,
2195,2195,1.0975000,252222,1097,18746.4219,25695.6875,16.2574407558,23.54156237,0,0,
2196,2196,1.0980000,252223,1098,18743.6562,25700.377,6.7451410098,27.9133146842,0,0,
2197,2197,1.0985000,252223,1098,18740.0508,25703.623,0.00920207749386,30.5451976162,0,0,
2198,2198,1.0990000,252224,1099,18736.2051,25708.1895,-4.12718465667,32.3809333467,0,0,
2199,2199,1.0995000,252224,1099,18734.5215,25707.3496,-4.59754521191,26.5584070969,0,0,
2200,2200,1.1000000,252225,1100,18732.8379,25704.2246,-5.20841748579,20.5442534214,0,0,
2201,2201,1.1005000,252225,1100,18732.5977,25705.3047,-7.24174121462,20.1042629808,0,0,
2202,2202,1.1010000,252226,1101,18731.877,25703.623,-11.1092449545,15.3891101921,0,0,
2203,2203,1.1015000,252226,1101,18731.7559,25697.252,-12.958238632,7.04344107398,0,0,
2204,2204,1.1020000,252227,1102,18729.2324,25695.3281,-15.8493502869,2.94841789882,0,0,
2205,2205,1.1025000,252227,1102,18723.4629,25696.8906,-19.6118678474,5.73809690385,0,0,
2206,2206,1.1030000,252228,1103,18726.5879,25698.9355,-16.3418011236,8.00099850824,0,0,
2207,2207,1.1035000,252228,1103,18727.5488,25700.0156,-18.1572788678,8.83691534024,0,0,
2208,2208,1.1040000,252229,1104,18725.627,25697.0098,-22.3321334201,7.17360515608,0,0,
2209,2209,1.1045000,252229,1104,18724.5449,25693.8848,-26.135439846,3.2483888379,0,0,
2210,2210,1.1050000,252230,1105,18725.2656,25697.0098,-25.5353040307,6.55893992972,0,0,
2211,2211,1.1055000,252230,1105,18725.627,25704.4629,-24.3371409055,10.9551019558,0,0,
2212,2212,1.1060000,252231,1106,18722.3809,25706.5078,-27.0156573951,10.5579115435,0,0,
2213,2213,1.1065000,252231,1106,18718.4141,25703.7422,-29.2730168202,8.53519939849,0,0,
2214,2214,1.1070000,252232,1107,18719.7363,25705.7871,-29.0417610853,9.23671665947,0,0,
2215,2215,1.1075000,252232,1107,18715.7695,25707.5879,-31.2703624277,9.37117270229,0,0,
2216,2216,1.1080000,252233,1108,18719.2559,25707.9512,-28.4830014698,6.99101084479,0,0,
2217,2217,1.1085000,252233,1108,18717.0918,25711.6738,-29.5154732044,6.83809169538,0,0,
2218,2218,1.1090000,252234,1109,18716.9707,25709.3906,-27.6037715657,2.53186793941,0,0,
2219,2219,1.1095000,252234,1109,18716.7324,25707.2285,-27.2849733456,-1.32451589829,0,0,
2220,2220,1.1100000,252235,1110,18716.6113,25704.3438,-26.9086559318,-5.32988995387,0,0,
2221,2221,1.1105000,252235,1110,18710.1191,25698.0938,-32.5006781107,-11.5965208366,0,0,
2222,2222,1.1110000,252236,1111,18711.082,25697.6113,-29.3473941461,-11.9906063289,0,0,
2223,2223,1.1115000,252236,1111,18713.2461,25697.6113,-24.3963669797,-13.3167971757,0,0,
2224,2224,1.1120000,252237,1112,18711.9238,25693.0449,-22.3788917472,-18.1525827319,0,0,
2225,2225,1.1125000,252237,1112,18709.0391,25688.7168,-22.5726471566,-21.7144303371,0,0,
2226,2226,1.1130000,252238,1113,18707.4766,25690.7598,-27.6982883491,-18.3007169989,0,0,
2227,2227,1.1135000,252238,1113,18704.9512,25688.8359,-31.7032621638,-18.2422317456,0,0,
2228,2228,1.1140000,252239,1114,18705.3125,25684.5098,-29.3098935132,-21.6338320746,0,0,
2229,2229,1.1145000,252239,1114,18709.1582,25679.7031,-23.0991138058,-23.134918227,0,0,
2230,2230,1.1150000,252240,1115,18705.4316,25680.5449,-23.3384013198,-19.9540915931,0,0,
2231,2231,1.1155000,252240,1115,18701.5859,25677.0566,-22.5315024766,-20.1409918206,0,0,
2232,2232,1.1160000,252241,1116,18700.625,25678.6191,-17.3461245664,-18.6323924707,0,0,
2233,2233,1.1165000,252241,1116,18700.5039,25674.8926,-15.0897985452,-21.4418556556,0,0,
2234,2234,1.1170000,252242,1117,18695.8164,25675.6152,-18.1852952089,-19.1965084361,0,0,
2235,2235,1.1175000,252242,1117,18700.0234,25680.0625,-13.4541786648,-13.4358596565,0,0,
2236,2236,1.1180000,252243,1118,18699.7832,25682.1074,-13.0088153363,-9.94673006384,0,0,
2237,2237,1.1185000,252243,1118,18699.7832,25679.4609,-10.1212051641,-10.304616917,0,0,
2238,2238,1.1190000,252244,1119,18698.5801,25684.75,-6.73673240699,-5.25448780648,0,0,
2239,2239,1.1195000,252244,1119,18698.7012,25690.8809,-1.68732761055,-1.78535039321,0,0,
2240,2240,1.1200000,252245,1120,18694.2539,25690.7598,-0.829149205768,-3.21440247804,0,0,
2241,2241,1.1205000,252245,1120,18694.0137,25690.0391,1.53402874702,-4.75226834818,0,0,
2242,2242,1.1210000,252246,1121,18695.0957,25686.6738,3.73796739185,-9.34147211554,0,0,
2243,2243,1.1215000,252246,1121,18697.498,25690.1582,7.64301633682,-7.30739783549,0,0,
2244,2244,1.1220000,252247,1122,18698.7012,25697.6113,11.0948995316,-4.09107910842,0,0,
2245,2245,1.1225000,252247,1122,18694.6152,25696.1699,11.438219991,-6.88023386868,0,0,
2246,2246,1.1230000,252248,1123,18693.6523,25698.5723,12.3758537573,-6.53609255103,0,0,
2247,2247,1.1235000,252248,1123,18694.0137,25696.8906,12.746280105,-9.64859696706,0,0,
2248,2248,1.1240000,252249,1124,18685.959,25697.9707,6.74510239629,-8.49791772219,0,0,
2249,2249,1.1245000,252249,1124,18681.1504,25696.0488,3.88603404649,-11.9919627689,0,0,
2250,2250,1.1250000,252250,1125,18679.3496,25697.6113,5.85997096092,-11.8967035734,0,0,
2251,2251,1.1255000,252250,1125,18669.4922,25702.0605,2.19008209465,-11.5411746028,0,0,
2252,2252,1.1260000,252251,1126,18665.1641,25713.4785,4.17837892819,-4.27019257211,0,0,
2253,2253,1.1265000,252251,1126,18659.3945,25720.5703,5.5178173195,0.61821935136,0,0,
2254,2254,1.1270000,252252,1127,18662.4004,25720.4512,11.3721665411,-3.39302748309,0,0,
2255,2255,1.1275000,252252,1127,18658.6738,25724.1777,13.2154151288,-3.67085405126,0,0,
2256,2256,1.1280000,252253,1128,18656.3887,25719.9688,13.6356279797,-11.0830746603,0,0,
2257,2257,1.1285000,252253,1128,18659.877,25704.9453,20.7257037031,-26.885605455,0,0,
2258,2258,1.1290000,252254,1129,18659.1543,25698.5723,23.5449968445,-30.5775055965,0,0,
2259,2259,1.1295000,252254,1129,18659.2754,25701.8203,25.5341562961,-25.6114714221,0,0,
2260,2260,1.1300000,252255,1130,18657.5918,25712.1562,25.5315634698,-15.5732690726,0,0,
2261,2261,1.1305000,252255,1130,18649.8984,25717.6855,20.9515458869,-10.8547713878,0,0,
2262,2262,1.1310000,252256,1131,18648.457,25722.375,22.1751863167,-8.63572302484,0,0,
2263,2263,1.1315000,252256,1131,18657.9531,25719.127,32.695349929,-14.4212923595,0,0,
2264,2264,1.1320000,252257,1132,18662.8809,25712.2754,38.3086929355,-21.1655394419,0,0,
2265,2265,1.1325000,252257,1132,18660.2363,25717.0859,35.9863806659,-16.9155252044,0,0,
2266,2266,1.1330000,252258,1133,18659.9961,25722.6152,30.4697724976,-12.9684916092,0,0,
2267,2267,1.1335000,252258,1133,18659.7559,25724.8984,26.3049846826,-11.2759075397,0,0,
2268,2268,1.1340000,252259,1134,18662.6406,25716.3652,26.9756350758,-19.3678527469,0,0,
2269,2269,1.1345000,252259,1134,18664.6836,25712.1562,26.7651752971,-20.8382669373,0,0,
2270,2270,1.1350000,252260,1135,18667.3281,25698.334,28.3805678039,-30.5929797946,0,0,
2271,2271,1.1355000,252260,1135,18668.4102,25692.9238,28.576030472,-29.8409813794,0,0,
2272,2272,1.1360000,252261,1136,18674.7812,25696.6504,33.4825421499,-24.0843693848,0,0,
2273,2273,1.1365000,252261,1136,18673.6992,25712.3965,28.3435102449,-8.23802029606,0,0,
2274,2274,1.1370000,252262,1137,18669.0117,25726.5801,20.2703454686,3.36923617285,0,0,
2275,2275,1.1375000,252262,1137,18667.4473,25734.9941,14.1242062639,8.1269347443,0,0,
2276,2276,1.1380000,252263,1138,18663.8418,25738.2402,7.84782518229,8.73507784293,0,0,
2277,2277,1.1385000,252263,1138,18665.4043,25743.6484,8.27451268851,12.1890303461,0,0,
2278,2278,1.1390000,252264,1139,18666.8477,25741.7266,9.82383274028,6.80778118008,0,0,
2279,2279,1.1395000,252264,1139,18663.7227,25738.9609,7.64732550003,0.743896471276,0,0,
2280,2280,1.1400000,252265,1140,18663.1211,25744.25,8.6203329485,4.32266185288,0,0,
2281,2281,1.1405000,252265,1140,18666.9668,25738.2402,10.4436317566,-1.51239696212,0,0,
2282,2282,1.1410000,252266,1141,18672.7363,25738.1191,12.1135737778,-1.67207746459,0,0,
2283,2283,1.1415000,252266,1141,18671.6543,25745.9316,8.01430107367,3.90195774491,0,0,
2284,2284,1.1420000,252267,1142,18670.0918,25760.1172,5.10323788764,11.7834769579,0,0,
2285,2285,1.1425000,252267,1142,18670.6934,25781.6328,6.47625407857,27.0047364492,0,0,
2286,2286,1.1430000,252268,1143,18668.4102,25790.6484,2.8678915068,27.8621635389,0,0,
2287,2287,1.1435000,252268,1143,18665.5254,25790.5293,-2.22152091973,21.4763404946,0,0,
2288,2288,1.1440000,252269,1144,18668.4102,25783.916,-0.143252323769,11.5500207934,0,0,
2289,2289,1.1445000,252269,1144,18669.7324,25768.6504,-1.18520191568,-4.52120449396,0,0,
2290,2290,1.1450000,252270,1145,18670.334,25759.998,-2.08242953569,-12.3468061845,0,0,
2291,2291,1.1455000,252270,1145,18674.0605,25751.3438,1.58257472931,-20.28634568,0,0,
2292,2292,1.1460000,252271,1146,18680.5508,25741.4863,5.62777795664,-27.0226814805,0,0,
2293,2293,1.1465000,252271,1146,18680.1895,25744.1309,3.62361141911,-18.667222741,0,0,
2294,2294,1.1470000,252272,1147,18678.627,25744.6113,-2.88392068598,-13.2598020702,0,0,
2295,2295,1.1475000,252272,1147,18679.8301,25744.8516,-3.2047287071,-9.04278247488,0,0,
2296,2296,1.1480000,252273,1148,18673.9395,25760.8379,-11.6183665875,8.45264458829,0,0,
2297,2297,1.1485000,252273,1148,18671.416,25787.6426,-15.2107601366,32.3798748884,0,0,
2298,2298,1.1490000,252274,1149,18668.6504,25795.5781,-17.2624100552,36.1116597241,0,0,
2299,2299,1.1495000,252274,1149,18666.4863,25802.1875,-19.2908124785,35.8979301406,0,0,
2300,2300,1.1500000,252275,1150,18665.4043,25812.0449,-19.7396854423,36.7619602547,0,0,
2301,2301,1.1505000,252275,1150,18668.7715,25813.0059,-15.1593995075,30.9111160566,0,0,
2302,2302,1.1510000,252276,1151,18676.2227,25805.3125,-9.31218429024,18.2385796555,0,0,
2303,2303,1.1515000,252276,1151,18673.8184,25810.3613,-13.8461565142,18.5273710161,0,0,
2304,2304,1.1520000,252277,1152,18674.6602,25817.5723,-13.2516185442,21.454890395,0,0,
2305,2305,1.1525000,252277,1152,18676.8242,25825.5078,-10.7270450124,22.2055121122,0,0,
2306,2306,1.1530000,252278,1153,18675.0215,25832.3594,-16.4652596198,21.300231271,0,0,
2307,2307,1.1535000,252278,1153,18669.8535,25841.4941,-23.2430794586,23.411849093,0,0,
2308,2308,1.1540000,252279,1154,18680.5508,25846.7832,-14.7950107872,22.7074215871,0,0,
2309,2309,1.1545000,252279,1154,18691.3691,25856.5215,-7.51405710111,25.5856445181,0,0,
2310,2310,1.1550000,252280,1155,18689.9258,25867.2188,-10.4137928977,28.781380526,0,0,
2311,2311,1.1555000,252280,1155,18689.4453,25875.0312,-11.2876366696,27.9811455907,0,0,
2312,2312,1.1560000,252281,1156,18696.5371,25888.4941,-6.01429692218,27.466442343,0,0,
2313,2313,1.1565000,252281,1156,18701.7051,25914.8184,-4.18679547419,35.520637764,0,0,
2314,2314,1.1570000,252282,1157,18698.3418,25943.666,-9.54811450899,43.2660602436,0,0,
2315,2315,1.1575000,252282,1157,18700.1426,25974.0781,-11.6620967221,50.5927642674,0,0,
2316,2316,1.1580000,252283,1158,18703.5098,25998.4785,-11.2720462625,51.920405411,0,0,
2317,2317,1.1585000,252283,1158,18704.832,26020.3574,-12.2529984745,50.1462785033,0,0,
2318,2318,1.1590000,252284,1159,18708.4375,26034.6582,-9.93876564818,40.6048919125,0,0,
2319,2319,1.1595000,252284,1159,18712.6445,26046.7988,-6.43021591063,29.0934499585,0,0,
2320,2320,1.1600000,252285,1160,18712.4043,26057.6191,-6.9366931943,17.6827619564,0,0,
2321,2321,1.1605000,252285,1160,18721.0586,26076.7324,-2.77047414868,16.2474351218,0,0,
2322,2322,1.1610000,252286,1161,18729.5938,26088.2715,-0.778034154271,6.62625172126,0,0,
2323,2323,1.1615000,252286,1161,18735.4824,26092.959,0.0072002140606,-9.56364722544,0,0,
2324,2324,1.1620000,252287,1162,18729.5938,26111.1094,-8.09248758406,-14.8547551674,0,0,
2325,2325,1.1625000,252287,1162,18721.6602,26119.4043,-14.8374707497,-26.332028991,0,0,
2326,2326,1.1630000,252288,1163,18721.2988,26114.2344,-15.1958105502,-45.3344895003,0,0,
2327,2327,1.1635000,252288,1163,18722.9824,26112.6719,-14.7208074574,-55.4646834088,0,0,
2328,2328,1.1640000,252289,1164,18726.5879,26119.7637,-12.2192057024,-54.539964809,0,0,
2329,2329,1.1645000,252289,1164,18725.9863,26125.1719,-14.1778144081,-54.0641460011,0,0,
2330,2330,1.1650000,252290,1165,18727.4297,26134.3066,-13.2021069461,-51.6231327374,0,0,
2331,2331,1.1655000,252290,1165,18727.5488,26140.5566,-12.1437517517,-53.1111906455,0,0,
2332,2332,1.1660000,252291,1166,18729.834,26147.7715,-10.4623667216,-52.7343317384,0,0,
2333,2333,1.1665000,252291,1166,18727.6699,26156.4238,-10.8536766601,-50.3688386926,0,0,
2334,2334,1.1670000,252292,1167,18714.6875,26163.998,-22.2887212494,-48.5059687824,0,0,
2335,2335,1.1675000,252292,1167,18716.6113,26162.3145,-17.1055820783,-54.1577903681,0,0,
2336,2336,1.1680000,252293,1168,18728.9922,26171.0879,-4.67903665869,-51.2851345816,0,0,
2337,2337,1.1685000,252293,1168,18739.4492,26177.0996,3.81414859265,-51.3125330908,0,0,
2338,2338,1.1690000,252294,1169,18741.6133,26192.2441,4.83084486875,-39.8890950491,0,0,
2339,2339,1.1695000,252294,1169,18748.8262,26203.5449,8.87144511988,-34.1354102416,0,0,
2340,2340,1.1700000,252295,1170,18755.3164,26212.3203,11.4202990052,-32.2128649573,0,0,
2341,2341,1.1705000,252295,1170,18764.8125,26218.3281,15.9728232069,-29.7563477049,0,0,
2342,2342,1.1710000,252296,1171,18756.3984,26223.8594,3.34412105741,-26.4181874581,0,0,
2343,2343,1.1715000,252296,1171,18754.5957,26233.5938,-0.845814541053,-21.3600612348,0,0,
2344,2344,1.1720000,252297,1172,18758.4414,26244.7734,1.16045486293,-14.8481652104,0,0,
2345,2345,1.1725000,252297,1172,18757.1191,26248.0176,-0.786928064425,-17.0069651617,0,0,
2346,2346,1.1730000,252298,1173,18767.0957,26250.5449,3.87864520702,-18.6682563526,0,0,
2347,2347,1.1735000,252298,1173,18763.7305,26256.1934,-2.20109446877,-15.9991010341,0,0,
2348,2348,1.1740000,252299,1174,18765.0527,26256.5547,-5.09605736388,-15.8008477181,0,0,
2349,2349,1.1745000,252299,1174,18763.9707,26263.1641,-8.92780787891,-10.2678645953,0,0,
2350,2350,1.1750000,252300,1175,18770.7012,26270.0156,-2.456100781,-4.50339890943,0,0,
2351,2351,1.1755000,252300,1175,18773.2266,26276.748,-0.0722615961901,0.873586056908,0,0,
2352,2352,1.1760000,252301,1176,18779.1172,26278.0703,3.33566439386,-2.4649092502,0,0,
2353,2353,1.1765000,252301,1176,18780.3184,26286.4844,2.07463034166,-1.77863220898,0,0,
2354,2354,1.1770000,252302,1177,18786.4492,26290.0918,6.67084488777,-4.63615355493,0,0,
2355,2355,1.1775000,252302,1177,18795.2246,26290.8125,10.1051689149,-7.8717166406,0,0,
2356,2356,1.1780000,252303,1178,18794.8633,26295.9785,5.81584577046,-3.60998895341,0,0,
2357,2357,1.1785000,252303,1178,18789.4551,26305.3574,-1.08565238402,5.10207603518,0,0,
2358,2358,1.1790000,252304,1179,18782.8418,26321.4629,-6.85031836964,19.1866403711,0,0,
2359,2359,1.1795000,252304,1179,18783.3242,26337.0879,-4.65252693656,30.4584242558,0,0,
2360,2360,1.1800000,252305,1180,18790.0547,26345.3828,3.39423338312,34.2500242983,0,0,
2361,2361,1.1805000,252305,1180,18797.8691,26351.7559,7.35898696943,36.2869240124,0,0,
2362,2362,1.1810000,252306,1181,18800.5137,26359.2051,5.53371805837,39.1701663779,0,0,
2363,2363,1.1815000,252306,1181,18803.998,26359.9277,6.43271941046,35.676288617,0,0,
2364,2364,1.1820000,252307,1182,18812.1719,26350.791,13.6711239738,20.8632921819,0,0,
2365,2365,1.1825000,252307,1182,18814.6973,26343.3418,16.3109402017,13.3589781777,0,0,
2366,2366,1.1830000,252308,1183,18815.7793,26357.4043,14.9202462213,28.5376046309,0,0,
2367,2367,1.1835000,252308,1183,18817.582,26374.5938,13.0545854007,44.6173564674,0,0,
2368,2368,1.1840000,252309,1184,18820.4668,26379.8809,12.2967112891,47.8113483449,0,0,
2369,2369,1.1845000,252309,1184,18823.4707,26380.2422,11.7751046554,47.0266077275,0,0,
2370,2370,1.1850000,252310,1185,18824.4336,26370.9863,9.81125157345,36.7033014399,0,0,
2371,2371,1.1855000,252310,1185,18829.2402,26369.9043,12.3586029491,34.1551054208,0,0,
2372,2372,1.1860000,252311,1186,18825.3945,26372.5488,6.04293551247,35.1281923078,0,0,
2373,2373,1.1865000,252311,1186,18823.832,26383.6074,4.82356545955,42.6200897239,0,0,
2374,2374,1.1870000,252312,1187,18823.4707,26406.4453,4.49411853788,58.2041225835,0,0,
2375,2375,1.1875000,252312,1187,18824.9141,26419.5488,4.73210852742,63.4893316902,0,0,
2376,2376,1.1880000,252313,1188,18820.1055,26426.8809,-2.28938239358,59.0646369177,0,0,
2377,2377,1.1885000,252313,1188,18818.9043,26433.252,-4.66007511776,53.5904182125,0,0,
2378,2378,1.1890000,252314,1189,18813.1348,26435.4141,-7.98313589848,46.0268463938,0,0,
2379,2379,1.1895000,252314,1189,18807.7246,26443.709,-11.5557341891,43.9448576259,0,0,
2380,2380,1.1900000,252315,1190,18806.041,26456.0879,-10.9272377326,44.1584857407,0,0,
2381,2381,1.1905000,252315,1190,18805.5605,26446.9531,-9.34809358861,28.5911718925,0,0,
2382,2382,1.1910000,252316,1191,18809.0469,26440.584,-2.82175593846,18.6643168156,0,0,
2383,2383,1.1915000,252316,1191,18798.8301,26450.2012,-8.91037113614,21.1266039573,0,0,
2384,2384,1.1920000,252317,1192,18797.748,26463.6621,-6.37405412924,25.9950336864,0,0,
2385,2385,1.1925000,252317,1192,18797.3887,26469.5527,-2.08500377568,23.2481555035,0,0,
2386,2386,1.1930000,252318,1193,18794.0215,26470.875,-4.96927060422,16.8570125888,0,0,
2387,2387,1.1935000,252318,1193,18789.6934,26477.7266,-4.76468497179,15.7198221783,0,0,
2388,2388,1.1940000,252319,1194,18787.291,26490.8281,-4.95583288126,21.3976950615,0,0,
2389,2389,1.1945000,252319,1194,18785.127,26503.6895,-3.935239803,23.6551714142,0,0,
2390,2390,1.1950000,252320,1195,18783.8047,26505.373,-0.965371706192,15.9104194264,0,0,
2391,2391,1.1955000,252320,1195,18783.3242,26509.9395,3.44991394389,11.4483506108,0,0,
2392,2392,1.1960000,252321,1196,18778.2754,26519.1953,1.95440951585,8.75470540814,0,0,
2393,2393,1.1965000,252321,1196,18773.8281,26525.4473,2.07507572564,-0.0754560374692,0,0,
2394,2394,1.1970000,252322,1197,18770.1016,26528.4512,3.47458647529,-9.72457896916,0,0,
2395,2395,1.1975000,252322,1197,18767.5762,26539.1484,3.51075554574,-10.7112774851,0,0,
2396,2396,1.1980000,252323,1198,18764.0918,26548.1641,4.85903561591,-12.0727699439,0,0,
2397,2397,1.1985000,252323,1198,18759.5234,26552.8516,6.63542546341,-16.8921343685,0,0,
2398,2398,1.1990000,252324,1199,18755.5566,26553.2129,9.4380267266,-24.8826115326,0,0,
2399,2399,1.1995000,252324,1199,18749.1855,26551.6504,9.40181292969,-32.9782923943,0,0,
2400,2400,1.2000000,252325,1200,18744.8594,26549.248,10.9296889945,-38.5614551182,0,0,
2401,2401,1.2005000,252325,1200,18746.541,26553.0938,14.1626074308,-37.181818896,0,0,
2402,2402,1.2010000,252326,1201,18738.7285,26563.0703,9.31191907146,-30.8844197036,0,0,
2403,2403,1.2015000,252326,1201,18733.1992,26570.2812,8.54105619057,-27.1884165095,0,0,
2404,2404,1.2020000,252327,1202,18728.3906,26574.3691,10.0204302319,-28.3937514193,0,0,
2405,2405,1.2025000,252327,1202,18722.502,26568.8379,12.5557499613,-35.2213131769,0,0,
2406,2406,1.2030000,252328,1203,18715.5293,26567.3984,12.2763664411,-38.0875566159,0,0,
2407,2407,1.2035000,252328,1203,18710,26566.1953,12.208355106,-39.5240969701,0,0,
2408,2408,1.2040000,252329,1204,18705.9121,26560.0645,13.1699931549,-42.3512146152,0,0,
2409,2409,1.2045000,252329,1204,18701.9473,26548.8848,14.1137863991,-46.7562643723,0,0,
2410,2410,1.2050000,252330,1205,18701.7051,26536.1465,18.3438015732,-50.7345336052,0,0,
2411,2411,1.2055000,252330,1205,18701.9473,26506.8145,22.2458004347,-68.5180628088,0,0,
2412,2412,1.2060000,252331,1206,18705.6738,26474.9609,28.3593008836,-84.2309841753,0,0,
2413,2413,1.2065000,252331,1206,18703.5098,26455.9688,29.3552776179,-86.2605512575,0,0,
2414,2414,1.2070000,252332,1207,18698.3418,26455.0078,26.7969839151,-73.2518895904,0,0,
2415,2415,1.2075000,252332,1207,18690.5273,26467.5078,21.0712449812,-47.7421000421,0,0,
2416,2416,1.2080000,252333,1208,18687.5215,26486.0215,19.2327641822,-22.814520716,0,0,
2417,2417,1.2085000,252333,1208,18685.4785,26494.9141,17.7096998179,-9.92536811448,0,0,
2418,2418,1.2090000,252334,1209,18682.9551,26500.2031,18.0740504913,-0.521163751488,0,0,
2419,2419,1.2095000,252334,1209,18674.541,26498.4004,11.9302019467,0.390443840116,0,0,
2420,2420,1.2100000,252335,1210,18668.6504,26487.1016,8.1397583584,-7.48067850672,0,0,
2421,2421,1.2105000,252335,1210,18663.8418,26470.6348,5.22520821946,-12.1052853497,0,0,
2422,2422,1.2110000,252336,1211,18663.7227,26450.2012,7.06822392401,-18.2084896639,0,0,
2423,2423,1.2115000,252336,1211,18667.3281,26438.0605,13.0112920304,-19.9904349626,0,0,
2424,2424,1.2120000,252337,1212,18664.6836,26437.5781,10.4906299259,-11.6700102433,0,0,
2425,2425,1.2125000,252337,1212,18666.4863,26439.8613,12.4721092408,-0.816591322878,0,0,
2426,2426,1.2130000,252338,1213,18669.1309,26439.8613,11.323246384,7.3515447629,0,0,
2427,2427,1.2135000,252338,1213,18667.9297,26429.7656,9.20623858038,5.22378143809,0,0,
2428,2428,1.2140000,252339,1214,18666.0059,26415.4609,4.20619948769,1.11302899927,0,0,
2429,2429,1.2145000,252339,1214,18667.6895,26395.9902,3.00391001211,-6.97934161803,0,0,
2430,2430,1.2150000,252340,1215,18670.8145,26380.7246,3.39725866655,-7.41452288362,0,0,
2431,2431,1.2155000,252340,1215,18667.4473,26372.9082,-1.41243201063,-1.43984855228,0,0,
2432,2432,1.2160000,252341,1216,18669.4922,26361.6094,-1.95501589209,-1.3959662599,0,0,
2433,2433,1.2165000,252341,1216,18666.127,26348.0293,-6.92238369138,-4.95892938156,0,0,
2434,2434,1.2170000,252342,1217,18667.0879,26347.5469,-7.64356801675,4.41273942871,0,0,
2435,2435,1.2175000,252342,1217,18666.3672,26345.0234,-12.0649937527,10.2843580353,0,0,
2436,2436,1.2180000,252343,1218,18663.8418,26331.5605,-15.8315981565,7.77478131692,0,0,
2437,2437,1.2185000,252343,1218,18660.957,26318.9375,-18.2182466707,7.68550216704,0,0,
2438,2438,1.2190000,252344,1219,18662.0391,26310.0449,-16.7548495069,11.4988354467,0,0,
2439,2439,1.2195000,252344,1219,18662.0391,26309.8027,-16.7453437896,22.2157832039,0,0,
2440,2440,1.2200000,252345,1220,18658.5527,26319.7812,-20.3652602778,40.5648354725,0,0,
2441,2441,1.2205000,252345,1220,18660.1152,26333.4844,-22.7608804028,57.5206663812,0,0,
2442,2442,1.2210000,252346,1221,18659.2754,26336.6094,-25.0994720126,60.9884365102,0,0,
2443,2443,1.2215000,252346,1221,18660.8379,26327.3535,-24.6078742417,54.0584447375,0,0,
2444,2444,1.2220000,252347,1222,18659.5156,26330.3574,-25.6693326824,56.7872948385,0,0,
2445,2445,1.2225000,252347,1222,18654.3457,26339.8535,-27.840385385,66.3659547457,0,0,
2446,2446,1.2230000,252348,1223,18654.5879,26330.4785,-26.250374728,56.3238257495,0,0,
2447,2447,1.2235000,252348,1223,18651.8223,26308.1191,-28.4947691728,37.0142179233,0,0,
2448,2448,1.2240000,252349,1224,18653.1445,26295.8594,-27.3490755543,31.2660513925,0,0,
2449,2449,1.2245000,252349,1224,18652.6641,26286.3652,-27.8089946519,30.2349061044,0,0,
2450,2450,1.2250000,252350,1225,18651.7012,26278.4297,-28.7077688853,30.4209613864,0,0,
2451,2451,1.2255000,252350,1225,18652.4238,26273.3828,-27.8384450999,33.3305529496,0,0,
2452,2452,1.2260000,252351,1226,18652.4238,26266.8906,-27.8358909981,33.6066259256,0,0,
2453,2453,1.2265000,252351,1226,18651.1016,26261.6016,-26.7924068095,30.6601329527,0,0,
2454,2454,1.2270000,252352,1227,18648.8184,26256.5547,-26.4427746396,23.2711409791,0,0,
2455,2455,1.2275000,252352,1227,18642.9277,26248.3809,-29.3025622844,13.8342484123,0,0,
2456,2456,1.2280000,252353,1228,18640.7637,26247.0566,-29.6914308403,8.82988842209,0,0,
2457,2457,1.2285000,252353,1228,18633.5508,26245.7344,-34.2540502072,5.69651599779,0,0,
2458,2458,1.2290000,252354,1229,18631.748,26239.0059,-31.146628523,0.018390525479,0,0,
2459,2459,1.2295000,252354,1229,18625.377,26232.0312,-31.9224179331,-5.03729469993,0,0,
2460,2460,1.2300000,252355,1230,18622.4922,26228.1855,-30.0869964099,-6.40815215463,0,0,
2461,2461,1.2305000,252355,1230,18615.7617,26225.541,-31.7351684576,-1.79169043252,0,0,
2462,2462,1.2310000,252356,1231,18619.248,26223.377,-24.4853763706,2.6140286672,0,0,
2463,2463,1.2315000,252356,1231,18615.1602,26215.8047,-23.463076802,-3.63211332836,0,0,
2464,2464,1.2320000,252357,1232,18610.4727,26203.1855,-23.0095731356,-15.5437340387,0,0,
2465,2465,1.2325000,252357,1232,18604.9434,26196.4531,-22.8008602044,-20.1479261765,0,0,
2466,2466,1.2330000,252358,1233,18598.332,26189.8418,-25.3433769445,-22.956417032,0,0,
2467,2467,1.2335000,252358,1233,18594.9668,26181.0684,-21.4901367225,-26.157625864,0,0,
2468,2468,1.2340000,252359,1234,18589.0762,26174.3359,-21.3657691775,-25.9925172186,0,0,
2469,2469,1.2345000,252359,1234,18580.4219,26166.2812,-23.0572769211,-27.0351355103,0,0,
2470,2470,1.2350000,252360,1235,18576.2148,26154.0215,-19.7226055398,-30.3965703973,0,0,
2471,2471,1.2355000,252360,1235,18572.6094,26142.7207,-14.2007844125,-33.8179045143,0,0,
2472,2472,1.2360000,252361,1236,18568.8828,26124.4512,-10.4857589549,-43.5139001486,0,0,
2473,2473,1.2365000,252361,1236,18569.2441,26110.2676,-2.39330935587,-49.1763361126,0,0,
2474,2474,1.2370000,252362,1237,18568.5215,26095.2422,3.22712573912,-55.2578069503,0,0,
2475,2475,1.2375000,252362,1237,18568.2812,26074.0859,7.2122702484,-64.4758270648,0,0,
2476,2476,1.2380000,252363,1238,18569.123,26058.9395,13.2300668196,-63.3499556685,0,0,
2477,2477,1.2385000,252363,1238,18567.4395,26044.998,17.3273256138,-59.9657874918,0,0,
2478,2478,1.2390000,252364,1239,18568.5215,26041.3906,22.7260488149,-48.1875081476,0,0,
2479,2479,1.2395000,252364,1239,18570.084,26043.1953,27.6931225958,-34.7055875449,0,0,
2480,2480,1.2400000,252365,1240,18569.8438,26044.7578,30.3462987469,-24.0553786449,0,0,
2481,2481,1.2405000,252365,1240,18568.1621,26046.2012,27.7283070979,-16.1927843746,0,0,
2482,2482,1.2410000,252366,1241,18567.6816,26038.5059,28.2623783445,-15.9631886894,0,0,
2483,2483,1.2415000,252366,1241,18569.9648,26024.6816,30.867403523,-17.5015646131,0,0,
2484,2484,1.2420000,252367,1242,18572.8496,26002.4453,34.5367369191,-27.7924012494,0,0,
2485,2485,1.2425000,252367,1242,18571.0449,25985.2578,35.5617443603,-29.9984700886,0,0,
2486,2486,1.2430000,252368,1243,18563.2324,25976.6016,29.5529624869,-22.1483438561,0,0,
2487,2487,1.2435000,252368,1243,18561.9102,25968.1875,29.3914888633,-12.6681206183,0,0,
2488,2488,1.2440000,252369,1244,18561.3105,25965.1816,28.6555217282,-0.0153964658847,0,0,
2489,2489,1.2445000,252369,1244,18563.2324,25972.5156,30.199398,19.8432639005,0,0,
2490,2490,1.2450000,252370,1245,18563.9551,25977.3223,30.1142409036,33.6626573961,0,0,
2491,2491,1.2455000,252370,1245,18562.752,25981.1699,28.0189812403,43.9381395698,0,0,
2492,2492,1.2460000,252371,1246,18559.3867,25986.9395,24.2492664435,53.1714885443,0,0,
2493,2493,1.2465000,252371,1246,18556.1406,25988.0215,22.8718271324,53.0358590555,0,0,
2494,2494,1.2470000,252372,1247,18550.7324,25993.0703,20.0767392166,51.5733291573,0,0,
2495,2495,1.2475000,252372,1247,18548.9277,25999.4395,20.8278579607,50.7217588414,0,0,
2496,2496,1.2480000,252373,1248,18552.2949,26005.2109,23.6980693301,45.4502260209,0,0,
2497,2497,1.2485000,252373,1248,18559.0254,26012.541,28.8581931942,42.5190047952,0,0,
2498,2498,1.2490000,252374,1249,18558.4238,26011.4609,27.3516388316,34.5483263216,0,0,
2499,2499,1.2495000,252374,1249,18558.4238,26005.4512,26.9243556431,23.3359491056,0,0,
2500,2500,1.2500000,252375,1250,18557.2227,25995.2344,23.9154735412,10.0414275416,0,0,
2501,2501,1.2505000,252375,1250,18563.2324,25989.8262,27.0863255656,6.53472058443,0,0,
2502,2502,1.2510000,252376,1251,18557.1035,25989.7031,17.465516007,8.01224266833,0,0,
2503,2503,1.2515000,252376,1251,18557.584,25984.2949,16.5877255739,1.43293446725,0,0,
2504,2504,1.2520000,252377,1252,18560.4688,25966.9863,17.2418995578,-14.8923098848,0,0,
2505,2505,1.2525000,252377,1252,18562.752,25953.8828,17.0011314391,-25.289289351,0,0,
2506,2506,1.2530000,252378,1253,18560.9492,25948.3535,11.3383851116,-26.6451000546,0,0,
2507,2507,1.2535000,252378,1253,18556.2617,25945.1094,5.66040274181,-24.6045121109,0,0,
2508,2508,1.2540000,252379,1254,18549.8906,25943.4277,-1.34880813624,-20.9412743083,0,0,
2509,2509,1.2545000,252379,1254,18550.6113,25944.627,-1.13240813613,-15.3739629325,0,0,
2510,2510,1.2550000,252380,1255,18548.3281,25946.791,-3.96231330816,-8.69365066761,0,0,
2511,2511,1.2555000,252380,1255,18547.8477,25946.791,-3.68188216859,-6.55650863601,0,0,
2512,2512,1.2560000,252381,1256,18546.5254,25940.3027,-5.24127726245,-10.2371688079,0,0,
2513,2513,1.2565000,252381,1256,18545.082,25934.0488,-6.39106774153,-14.9600583921,0,0,
2514,2514,1.2570000,252382,1257,18546.0449,25936.334,-5.65014489131,-12.7972470284,0,0,
2515,2515,1.2575000,252382,1257,18545.4434,25937.416,-7.51144952502,-11.0886837769,0,0,
2516,2516,1.2580000,252383,1258,18546.7656,25934.7715,-6.38632402006,-11.5450791691,0,0,
2517,2517,1.2585000,252383,1258,18545.3223,25935.373,-6.49409479677,-9.09824558476,0,0,
2518,2518,1.2590000,252384,1259,18547.3652,25932.7285,-4.49037138524,-11.7002059972,0,0,
2519,2519,1.2595000,252384,1259,18553.7363,25934.1699,0.597859162702,-12.2942727926,0,0,
2520,2520,1.2600000,252385,1260,18551.9336,25938.7363,-1.6515307718,-10.6232724434,0,0,
2521,2521,1.2605000,252385,1260,18546.6445,25947.2734,-8.9359039424,-6.82542717679,0,0,
2522,2522,1.2610000,252386,1261,18542.9199,25955.5684,-12.3285762528,-1.69519303386,0,0,
2523,2523,1.2615000,252386,1261,18543.7598,25963.3809,-11.7057388271,5.24872398798,0,0,
2524,2524,1.2620000,252387,1262,18545.6836,25967.5859,-9.34127697471,6.94322047134,0,0,
2525,2525,1.2625000,252387,1262,18544,25977.3223,-7.84236808834,12.7237261398,0,0,
2526,2526,1.2630000,252388,1263,18540.1543,25993.791,-8.70854686325,22.5719890003,0,0,
2527,2527,1.2635000,252388,1263,18532.7012,26011.9434,-13.6068215539,33.0253992622,0,0,
2528,2528,1.2640000,252389,1264,18529.5762,26024.9238,-14.7830872637,35.639576065,0,0,
2529,2529,1.2645000,252389,1264,18531.1387,26025.6465,-11.8996321166,26.0764141156,0,0,
2530,2530,1.2650000,252390,1265,18530.8984,26033.6973,-10.7386388946,23.9318263048,0,0,
2531,2531,1.2655000,252390,1265,18530.2969,26040.9121,-9.7673027127,21.2201864281,0,0,
2532,2532,1.2660000,252391,1266,18532.5801,26054.1328,-6.21606549691,22.9099240595,0,0,
2533,2533,1.2665000,252391,1266,18531.1387,26057.0176,-4.88610794121,13.6463748597,0,0,
2534,2534,1.2670000,252392,1267,18523.8066,26073.125,-7.93643221968,12.7318530301,0,0,
2535,2535,1.2675000,252392,1267,18509.502,26090.3125,-16.2505417035,12.2441251561,0,0,
2536,2536,1.2680000,252393,1268,18493.2754,26105.3379,-26.3516999998,7.1538002329,0,0,
2537,2537,1.2685000,252393,1268,18489.5488,26112.791,-24.0432849159,-2.98339033113,0,0,
2538,2538,1.2690000,252394,1269,18495.7988,26116.6387,-11.8521278025,-11.2562819047,0,0,
2539,2539,1.2695000,252394,1269,18512.627,26123.4902,7.27209518742,-14.775139143,0,0,
2540,2540,1.2700000,252395,1270,18528.1348,26129.7402,20.7147704551,-17.6042288136,0,0,
2541,2541,1.2705000,252395,1270,18527.5332,26140.6797,17.1541055359,-13.8780927027,0,0,
2542,2542,1.2710000,252396,1271,18521.8828,26155.1016,10.4076885943,-8.63592319904,0,0,
2543,2543,1.2715000,252396,1271,18523.2051,26173.9746,10.8115083007,-2.54348868506,0,0,
2544,2544,1.2720000,252397,1272,18544.1211,26190.0801,26.1152568343,0.920374756991,0,0,
2545,2545,1.2725000,252397,1272,18569.123,26202.2207,41.3157057873,-1.05930380903,0,0,
2546,2546,1.2730000,252398,1273,18575.4941,26218.209,36.8506068993,-0.587630335714,0,0,
2547,2547,1.2735000,252398,1273,18570.3262,26237.4434,24.733823092,2.4890998262,0,0,
2548,2548,1.2740000,252399,1274,18562.6309,26241.5293,11.8288288574,-7.50638235111,0,0,
2549,2549,1.2745000,252399,1274,18562.2715,26244.5332,5.89506915343,-17.0143541111,0,0,
2550,2550,1.2750000,252400,1275,18561.1895,26246.5781,0.269347171634,-24.5250503106,0,0,
2551,2551,1.2755000,252400,1275,18565.1562,26263.7656,0.14973244058,-18.985617877,0,0,
2552,2552,1.2760000,252401,1276,18564.916,26279.5137,-4.32356353487,-14.6053996491,0,0,
2553,2553,1.2765000,252401,1276,18563.1133,26296.1016,-9.18444828949,-11.980670334,0,0,
2554,2554,1.2770000,252402,1277,18553.1348,26311.4863,-20.3910831087,-13.0786061898,0,0,
2555,2555,1.2775000,252402,1277,18546.8848,26325.4297,-26.9382694597,-14.2171886204,0,0,
2556,2556,1.2780000,252403,1278,18541.1152,26333.002,-30.9920429674,-18.6938370775,0,0,
2557,2557,1.2785000,252403,1278,18536.7871,26349.1094,-31.2481065924,-15.6686401272,0,0,
2558,2558,1.2790000,252404,1279,18541.7168,26353.7969,-24.6842692824,-23.3299009276,0,0,
2559,2559,1.2795000,252404,1279,18544.9629,26358.7266,-21.0922094991,-31.1252312829,0,0,
2560,2560,1.2800000,252405,1280,18550.1309,26370.2656,-14.6923698047,-32.4209915375,0,0,
2561,2561,1.2805000,252405,1280,18551.4531,26381.8047,-13.9126919372,-34.151455855,0,0,
2562,2562,1.2810000,252406,1281,18547.8477,26395.627,-16.3920649928,-31.1506812379,0,0,
2563,2563,1.2815000,252406,1281,18547.8477,26413.416,-16.3209890652,-22.1282278089,0,0,
2564,2564,1.2820000,252407,1282,18545.9238,26432.8906,-17.007392499,-12.942209524,0,0,
2565,2565,1.2825000,252407,1282,18548.4473,26449.7188,-11.1275168622,-7.97651973811,0,0,
2566,2566,1.2830000,252408,1283,18555.541,26463.6621,-2.44628842927,-6.89917535246,0,0,
2567,2567,1.2835000,252408,1283,18560.1074,26477.4863,2.04722045994,-4.57892656696,0,0,
2568,2568,1.2840000,252409,1284,18548.207,26500.3262,-9.07814549047,5.17954410271,0,0,
2569,2569,1.2845000,252409,1284,18542.7988,26524.0059,-13.5014335722,15.2637440987,0,0,
2570,2570,1.2850000,252410,1285,18535.3457,26542.0332,-18.0011224428,17.9797882317,0,0,
2571,2571,1.2855000,252410,1285,18535.8262,26557.4199,-14.6060964714,18.513455158,0,0,
2572,2572,1.2860000,252411,1286,18534.0234,26564.752,-13.5645596708,11.2649607464,0,0,
2573,2573,1.2865000,252411,1286,18528.6152,26572.5645,-13.51753868,6.47442726192,0,0,
2574,2574,1.2870000,252412,1287,18529.2168,26579.0566,-6.80643365125,-3.1194470207,0,0,
2575,2575,1.2875000,252412,1287,18527.0527,26583.625,-2.49681643444,-12.0491923992,0,0,
2576,2576,1.2880000,252413,1288,18531.8613,26589.9941,5.36999573669,-18.5288021678,0,0,
2577,2577,1.2885000,252413,1288,18537.1484,26601.5332,9.92011185531,-16.9214819549,0,0,
2578,2578,1.2890000,252414,1289,18540.3945,26611.0312,11.6457201295,-13.2397934594,0,0,
2579,2579,1.2895000,252414,1289,18537.8691,26617.6426,6.95246110481,-11.4655591747,0,0,
2580,2580,1.2900000,252415,1290,18544.6016,26626.416,10.2376228712,-6.80185982918,0,0,
2581,2581,1.2905000,252415,1290,18549.7715,26635.791,13.4024644624,-0.665691779453,0,0,
2582,2582,1.2910000,252416,1291,18540.2754,26637.9551,5.24307406229,-1.68567267783,0,0,
2583,2583,1.2915000,252416,1291,18522.123,26651.0566,-9.05939665514,5.22311688382,0,0,
2584,2584,1.2920000,252417,1292,18509.8633,26655.2656,-19.1264548065,5.70944543615,0,0,
2585,2585,1.2925000,252417,1292,18513.709,26651.7793,-14.1677681599,0.396390129498,0,0,
2586,2586,1.2930000,252418,1293,18517.1953,26643.4844,-7.45276032571,-7.98844286733,0,0,
2587,2587,1.2935000,252418,1293,18518.877,26647.0918,0.148685382733,-4.16132552583,0,0,
2588,2588,1.2940000,252419,1294,18515.9941,26660.5547,2.94519239702,10.6008014441,0,0,
2589,2589,1.2945000,252419,1294,18512.8691,26665.002,3.23182175937,15.9425657972,0,0,
2590,2590,1.2950000,252420,1295,18512.2676,26666.4453,5.92182998706,19.4701477347,0,0,
2591,2591,1.2955000,252420,1295,18515.0312,26663.3184,10.6262814587,16.2200431663,0,0,
2592,2592,1.2960000,252421,1296,18517.6758,26662.8379,14.5181934579,17.5703998342,0,0,
2593,2593,1.2965000,252421,1296,18517.3145,26661.877,15.6232597882,17.6581611324,0,0,
2594,2594,1.2970000,252422,1297,18517.4355,26655.1465,17.7038158025,12.324949055,0,0,
2595,2595,1.2975000,252422,1297,18523.5664,26655.9863,22.9453124588,16.0156629724,0,0,
2596,2596,1.2980000,252423,1298,18522.3652,26678.2246,21.3444547281,39.3352021831,0,0,
2597,2597,1.2985000,252423,1298,18516.834,26700.7031,17.2302311233,56.9103941858,0,0,
2598,2598,1.2990000,252424,1299,18518.998,26708.0332,17.5153221597,59.8650609186,0,0,
2599,2599,1.2995000,252424,1299,18517.5566,26704.0684,14.379666679,51.2425188512,0,0,
2600,2600,1.3000000,252425,1300,18514.4316,26696.375,11.3620829987,39.5054356326,0,0,
2601,2601,1.3005000,252425,1300,18513.3496,26691.9277,9.95517106698,31.8462351681,0,0,
2602,2602,1.3010000,252426,1301,18514.0703,26691.3262,11.5384352053,30.2149127737,0,0,
2603,2603,1.3015000,252426,1301,18511.5449,26681.3496,8.6008699341,23.2147948965,0,0,
2604,2604,1.3020000,252427,1302,18514.5508,26671.8535,11.3452080209,18.1932619351,0,0,
2605,2605,1.3025000,252427,1302,18514.1895,26678.9453,11.9713060488,27.9736292255,0,0,
2606,2606,1.3030000,252428,1303,18511.9062,26689.5234,10.0419735628,38.7362630852,0,0,
2607,2607,1.3035000,252428,1303,18507.5801,26700.5801,6.7141008216,48.8501395697,0,0,
2608,2608,1.3040000,252429,1304,18511.666,26705.75,12.2806307807,50.841384888,0,0,
2609,2609,1.3045000,252429,1304,18510.3438,26700.4609,10.3820245216,44.7534381097,0,0,
2610,2610,1.3050000,252430,1305,18509.0215,26702.625,9.29204906057,45.9805561162,0,0,
2611,2611,1.3055000,252430,1305,18507.9395,26700.9434,7.25122679607,44.5046616905,0,0,
2612,2612,1.3060000,252431,1306,18506.8574,26683.5137,5.61665318507,30.8177646606,0,0,
2613,2613,1.3065000,252431,1306,18512.0254,26667.6465,11.1341365727,21.4277745895,0,0,
2614,2614,1.3070000,252432,1307,18513.9512,26658.6309,12.8008259934,15.8753853037,0,0,
2615,2615,1.3075000,252432,1307,18506.1367,26662.2363,7.06817269483,22.0452148273,0,0,
2616,2616,1.3080000,252433,1308,18495.0781,26657.4297,-2.69376413034,18.8862626313,0,0,
2617,2617,1.3085000,252433,1308,18494.1152,26641.0801,-4.31764110363,7.74651201577,0,0,
2618,2618,1.3090000,252434,1309,18499.0449,26622.3301,-0.772458656485,0.0287553512608,0,0,
2619,2619,1.3095000,252434,1309,18494.7168,26598.4082,-5.61304314701,-9.16328272113,0,0,
2620,2620,1.3100000,252435,1310,18489.0684,26581.1016,-12.4245219196,-10.4143891162,0,0,
2621,2621,1.3105000,252435,1310,18480.0527,26584.4668,-18.74652188,6.68307326916,0,0,
2622,2622,1.3110000,252436,1311,18485.1016,26600.8125,-8.81880187605,31.685404193,0,0,
2623,2623,1.3115000,252436,1311,18492.0723,26600.6934,1.57723776469,34.9916457242,0,0,
2624,2624,1.3120000,252437,1312,18493.0352,26597.0879,1.07806263583,37.0420893034,0,0,
2625,2625,1.3125000,252437,1312,18486.6641,26595.8848,-8.41161884987,41.2199887507,0,0,
2626,2626,1.3130000,252438,1313,18479.8125,26594.5625,-14.3108854263,43.7307859639,0,0,
2627,2627,1.3135000,252438,1313,18473.8027,26581.5801,-15.285727408,33.5200504396,0,0,
2628,2628,1.3140000,252439,1314,18471.3984,26566.4355,-12.0950927242,23.4253401849,0,0,
2629,2629,1.3145000,252439,1314,18478.3691,26548.1641,-3.33004938134,13.7090803808,0,0,
2630,2630,1.3150000,252440,1315,18482.457,26533.5,1.15688818131,9.67568581556,0,0,
2631,2631,1.3155000,252440,1315,18495.4395,26526.0469,11.0155588487,10.2141573937,0,0,
2632,2632,1.3160000,252441,1316,18515.873,26527.7324,24.7539098209,18.0284187308,0,0,
2633,2633,1.3165000,252441,1316,18525.6094,26531.3359,27.3719407639,24.2243901062,0,0,
2634,2634,1.3170000,252442,1317,18513.709,26527.7324,11.922310792,22.3030179757,0,0,
2635,2635,1.3175000,252442,1317,18493.1543,26526.8887,-9.81735377156,21.6397695507,0,0,
2636,2636,1.3180000,252443,1318,18482.457,26520.6387,-17.879458226,14.1061376098,0,0,
2637,2637,1.3185000,252443,1318,18483.7793,26506.6953,-13.0741436681,-0.40857295949,0,0,
2638,2638,1.3190000,252444,1319,18490.5098,26481.6934,-7.96357494692,-18.2503392693,0,0,
2639,2639,1.3195000,252444,1319,18485.9434,26460.5371,-12.5761152971,-29.3082723241,0,0,
2640,2640,1.3200000,252445,1320,18476.5664,26453.4453,-18.9807672443,-27.7514740674,0,0,
2641,2641,1.3205000,252445,1320,18475.6055,26439.8613,-17.8596735997,-33.2046873671,0,0,
2642,2642,1.3210000,252446,1321,18476.4473,26426.7598,-14.4886285498,-36.9828875083,0,0,
2643,2643,1.3215000,252446,1321,18481.6152,26432.7715,-8.74064864443,-21.8445906967,0,0,
2644,2644,1.3220000,252447,1322,18491.2324,26449.2363,-0.78680167642,-1.8485843677,0,0,
2645,2645,1.3225000,252447,1322,18497.6035,26456.0879,4.47833403055,2.89461039054,0,0,
2646,2646,1.3230000,252448,1323,18494.959,26461.0176,0.999982273445,3.44220156684,0,0,
2647,2647,1.3235000,252448,1323,18487.9863,26454.2871,-5.06764641907,-5.81903572219,0,0,
2648,2648,1.3240000,252449,1324,18486.5449,26435.4141,-5.64170674019,-23.9336762604,0,0,
2649,2649,1.3245000,252449,1324,18486.4238,26412.5762,-5.57149405584,-39.7117378738,0,0,
2650,2650,1.3250000,252450,1325,18488.9473,26398.1504,-2.86777471978,-46.8185967062,0,0,
2651,2651,1.3255000,252450,1325,18490.9902,26385.4121,-2.0903037255,-49.8863216279,0,0,
2652,2652,1.3260000,252451,1326,18490.8711,26378.4395,-3.12859214852,-44.7363790338,0,0,
2653,2653,1.3265000,252451,1326,18486.9043,26370.2656,-6.57665253365,-41.5891611011,0,0,
2654,2654,1.3270000,252452,1327,18487.9863,26363.5332,-4.61225836614,-42.070270294,0,0,
2655,2655,1.3275000,252452,1327,18486.4238,26352.9551,-2.67473393919,-47.5524653554,0,0,
2656,2656,1.3280000,252453,1328,18486.6641,26345.2637,-1.00130750291,-49.3684323827,0,0,
2657,2657,1.3285000,252453,1328,18492.4336,26336.0078,1.58113312235,-49.6558338047,0,0,
2658,2658,1.3290000,252454,1329,18491.3516,26323.1465,-2.86358535848,-50.0324873102,0,0,
2659,2659,1.3295000,252454,1329,18483.9004,26308.8418,-10.1938675866,-49.9611393404,0,0,
2660,2660,1.3300000,252455,1330,18465.3887,26302.4707,-26.129382993,-44.3392396461,0,0,
2661,2661,1.3305000,252455,1330,18455.0508,26300.0684,-29.9542500856,-39.3629550004,0,0,
2662,2662,1.3310000,252456,1331,18462.0215,26298.5059,-18.1030444927,-36.469487386,0,0,
2663,2663,1.3315000,252456,1331,18467.1914,26294.0566,-9.3384248221,-36.4586304703,0,0,
2664,2664,1.3320000,252457,1332,18471.6387,26289.25,-4.75900745019,-34.1793256852,0,0,
2665,2665,1.3325000,252457,1332,18477.0488,26286.9668,-1.39020619306,-29.9461661466,0,0,
2666,2666,1.3330000,252458,1333,18477.0488,26286.6035,-1.25755663836,-25.2324443921,0,0,
2667,2667,1.3335000,252458,1333,18474.7637,26294.2969,-0.756856217366,-14.9430923922,0,0,
2668,2668,1.3340000,252459,1334,18480.293,26295.1387,6.07670275713,-11.9206601047,0,0,
2669,2669,1.3345000,252459,1334,18474.8848,26295.5,-0.06901291345,-8.79814178227,0,0,
2670,2670,1.3350000,252460,1335,18472.9609,26294.416,-1.86329311972,-7.71301779326,0,0,
2671,2671,1.3355000,252460,1335,18473.0801,26294.416,-3.66569135592,-9.19538390359,0,0,
2672,2672,1.3360000,252461,1336,18471.6387,26295.9785,-7.33381853696,-10.9777301056,0,0,
2673,2673,1.3365000,252461,1336,18467.5527,26309.084,-9.7425766895,-4.8918962729,0,0,
2674,2674,1.3370000,252462,1337,18468.1523,26317.0156,-3.54577269607,-4.00194563126,0,0,
2675,2675,1.3375000,252462,1337,18473.8027,26313.5293,5.61337585895,-14.1554719711,0,0,
2676,2676,1.3380000,252463,1338,18473.3223,26320.3809,7.60814145254,-15.1161014446,0,0,
2677,2677,1.3385000,252463,1338,18471.8789,26327.1113,7.56641693664,-16.4801166554,0,0,
2678,2678,1.3390000,252464,1339,18472.2402,26332.8828,5.52007484272,-14.4880473278,0,0,
2679,2679,1.3395000,252464,1339,18469.1152,26334.6855,3.2417680881,-17.0095483307,0,0,
2680,2680,1.3400000,252465,1340,18471.0371,26323.2656,7.18304450907,-33.2532626652,0,0,
2681,2681,1.3405000,252465,1340,18472.2402,26305.5957,7.76409057994,-51.6131465009,0,0,
2682,2682,1.3410000,252466,1341,18472.5996,26304.7559,7.8312677693,-52.5434706304,0,0,
2683,2683,1.3415000,252466,1341,18471.998,26300.5469,5.84956732158,-56.7227654231,0,0,
2684,2684,1.3420000,252467,1342,18474.2832,26303.4316,5.58187292722,-55.9295206169,0,0,
2685,2685,1.3425000,252467,1342,18476.2051,26309.9238,6.85714328945,-52.6108101279,0,0,
2686,2686,1.3430000,252468,1343,18470.4355,26321.2207,2.94527691195,-45.9436727858,0,0,
2687,2687,1.3435000,252468,1343,18468.3926,26333.002,3.8440715234,-37.3584640869,0,0,
2688,2688,1.3440000,252469,1344,18466.8301,26340.2129,3.96741805733,-31.9156731122,0,0,
2689,2689,1.3445000,252469,1344,18465.6289,26347.3066,3.74572070415,-24.8125688935,0,0,
2690,2690,1.3450000,252470,1345,18459.7383,26352.9551,-0.198150528056,-22.360520246,0,0,
2691,2691,1.3455000,252470,1345,18460.0996,26354.2793,1.10421574214,-23.0129862322,0,0,
2692,2692,1.3460000,252471,1346,18459.1387,26356.5625,1.65778012275,-21.2356075268,0,0,
2693,2693,1.3465000,252471,1346,18459.0176,26357.5234,3.92482378003,-20.4943803831,0,0,
2694,2694,1.3470000,252472,1347,18458.0566,26354.2793,4.79570770752,-26.5588722035,0,0,
2695,2695,1.3475000,252472,1347,18461.4219,26349.1094,11.4230513375,-33.4896914572,0,0,
2696,2696,1.3480000,252473,1348,18459.377,26346.4668,10.9498177371,-36.7223427178,0,0,
2697,2697,1.3485000,252473,1348,18457.4551,26342.9785,7.14370870668,-37.1414431728,0,0,
2698,2698,1.3490000,252474,1349,18455.4121,26341.1777,4.37445888558,-32.5946234691,0,0,
2699,2699,1.3495000,252474,1349,18454.0879,26337.0879,4.90497743356,-28.6222775578,0,0,
2700,2700,1.3500000,252475,1350,18449.4004,26330.959,3.4309558088,-28.350469989,0,0,
2701,2701,1.3505000,252475,1350,18458.1758,26316.0547,13.2852798132,-37.1938085578,0,0,
2702,2702,1.3510000,252476,1351,18467.9121,26295.6191,19.2384448043,-49.1250837342,0,0,
2703,2703,1.3515000,252476,1351,18475.125,26285.5234,22.1748560132,-48.3188123455,0,0,
2704,2704,1.3520000,252477,1352,18474.2832,26288.166,16.0485367737,-33.6342377828,0,0,
2705,2705,1.3525000,252477,1352,18473.9219,26299.9473,10.0346138877,-13.0753565517,0,0,
2706,2706,1.3530000,252478,1353,18477.4082,26306.7988,10.3088015331,0.219997611941,0,0,
2707,2707,1.3535000,252478,1353,18473.9219,26306.1973,6.74780002808,4.70311947099,0,0,
2708,2708,1.3540000,252479,1354,18465.8691,26298.0234,-1.22036439915,4.80764395371,0,0,
2709,2709,1.3545000,252479,1354,18462.9844,26289.127,-3.90064789973,6.62939647077,0,0,
2710,2710,1.3550000,252480,1355,18460.0996,26293.4551,-6.38409718993,20.2421727167,0,0,
2711,2711,1.3555000,252480,1355,18446.1562,26302.5918,-19.2188083359,33.5790324125,0,0,
2712,2712,1.3560000,252481,1356,18438.9434,26312.9297,-24.3802549031,44.5492821928,0,0,
2713,2713,1.3565000,252481,1356,18436.0586,26325.7891,-22.1736138591,52.8658124726,0,0,
2714,2714,1.3570000,252482,1357,18440.5059,26338.5312,-11.5550783006,61.1595362451,0,0,
2715,2715,1.3575000,252482,1357,18452.6465,26343.9395,2.56453990218,63.034060208,0,0,
2716,2716,1.3580000,252483,1358,18460.9395,26343.5801,11.4696015068,57.6573090703,0,0,
2717,2717,1.3585000,252483,1358,18466.7109,26334.4453,15.8882047,46.3368576765,0,0,
2718,2718,1.3590000,252484,1359,18464.3066,26329.5156,9.51680306429,44.5066954958,0,0,
2719,2719,1.3595000,252484,1359,18459.0176,26329.998,4.17291309122,48.0377511826,0,0,
2720,2720,1.3600000,252485,1360,18462.3828,26330.4785,7.23562073968,50.8178725117,0,0,
2721,2721,1.3605000,252485,1360,18475.2441,26330.2363,15.7135313464,53.5398706427,0,0,
2722,2722,1.3610000,252486,1361,18475.8457,26327.2324,12.6843167025,50.8018134241,0,0,
2723,2723,1.3615000,252486,1361,18474.6426,26316.4141,7.66056374042,42.1164560869,0,0,
2724,2724,1.3620000,252487,1362,18470.3164,26320.7422,-0.392874292582,44.8001498476,0,0,
2725,2725,1.3625000,252487,1362,18463.7051,26325.0703,-7.29968445652,45.9576611939,0,0,
2726,2726,1.3630000,252488,1363,18454.0879,26333.4844,-12.9079143813,49.2262216361,0,0,
2727,2727,1.3635000,252488,1363,18453.8496,26344.9043,-9.48390342784,56.1569016801,0,0,
2728,2728,1.3640000,252489,1364,18453.0078,26349.7109,-7.96284126004,58.5523642598,0,0,
2729,2729,1.3645000,252489,1364,18453.4883,26353.6777,-6.1248137617,61.6591081021,0,0,
2730,2730,1.3650000,252490,1365,18446.0352,26354.6387,-10.1938743153,59.8737093205,0,0,
2731,2731,1.3655000,252490,1365,18441.1074,26354.2793,-12.8166013697,58.3331337577,0,0,
2732,2732,1.3660000,252491,1366,18429.8086,26349.2285,-19.2029276006,53.8805533627,0,0,
2733,2733,1.3665000,252491,1366,18431.8516,26339.0137,-12.4784759423,46.2068845243,0,0,
2734,2734,1.3670000,252492,1367,18438.9434,26326.3906,-2.83035572283,35.828951655,0,0,
2735,2735,1.3675000,252492,1367,18451.5645,26313.7715,10.6903204773,27.0937828875,0,0,
2736,2736,1.3680000,252493,1368,18459.7383,26304.875,17.6217446248,22.5827352809,0,0,
2737,2737,1.3685000,252493,1368,18457.0938,26307.1582,11.3960640869,30.0279445677,0,0,
2738,2738,1.3690000,252494,1369,18457.8145,26309.5625,9.21948738044,38.0469755807,0,0,
2739,2739,1.3695000,252494,1369,18456.252,26307.7598,7.02332482648,42.4223243189,0,0,
2740,2740,1.3700000,252495,1370,18453.248,26297.1816,5.11361038666,37.2832669446,0,0,
2741,2741,1.3705000,252495,1370,18448.9199,26285.7637,0.28695875748,31.4287317396,0,0,
2742,2742,1.3710000,252496,1371,18446.1562,26284.0801,-4.57332049213,34.1371285255,0,0,
2743,2743,1.3715000,252496,1371,18440.2656,26288.6484,-10.1150359126,39.8732390211,0,0,
2744,2744,1.3720000,252497,1372,18430.4082,26303.9141,-17.5102924411,52.3338303951,0,0,
2745,2745,1.3725000,252497,1372,18417.4277,26325.1895,-26.6060954212,64.9488852146,0,0,
2746,2746,1.3730000,252498,1373,18419.3496,26338.1719,-20.197455224,67.8811301173,0,0,
2747,2747,1.3735000,252498,1373,18425.9629,26338.291,-7.99454292046,59.0198589964,0,0,
2748,2748,1.3740000,252499,1374,18432.5723,26326.752,1.80749728385,44.0109912798,0,0,
2749,2749,1.3745000,252499,1374,18447.959,26309.2031,15.6061853108,27.44564851,0,0,
2750,2750,1.3750000,252500,1375,18461.0605,26300.7891,24.2947722785,19.1436222918,0,0,
2751,2751,1.3755000,252500,1375,18462.9844,26293.2168,21.996791912,10.1345841975,0,0,
2752,2752,1.3760000,252501,1376,18471.1582,26279.9922,23.0872437846,-3.12396175596,0,0,
2753,2753,1.3765000,252501,1376,18475.3652,26271.8203,21.3957056722,-12.4130040855,0,0,
2754,2754,1.3770000,252502,1377,18476.5664,26265.4473,17.8156180091,-17.0018337541,0,0,
2755,2755,1.3775000,252502,1377,18470.7969,26262.9238,6.84459348026,-15.2009790256,0,0,
2756,2756,1.3780000,252503,1378,18465.3887,26265.4473,-0.818825618295,-10.2178428243,0,0,
2757,2757,1.3785000,252503,1378,18457.0938,26268.334,-9.42941161074,-4.30679355938,0,0,
2758,2758,1.3790000,252504,1379,18460.459,26270.6172,-7.98154726338,2.14965204339,0,0,
2759,2759,1.3795000,252504,1379,18461.1816,26266.8906,-6.62163492399,1.72441712177,0,0,
2760,2760,1.3800000,252505,1380,18457.2148,26263.0449,-10.3430603926,0.883405195353,0,0,
2761,2761,1.3805000,252505,1380,18457.5762,26258.2363,-12.4884330558,0.0855787263202,0,0,
2762,2762,1.3810000,252506,1381,18454.6895,26255.834,-14.3564096724,-0.586884286916,0,0,
2763,2763,1.3815000,252506,1381,18451.2051,26250.9043,-16.4890209386,-2.35267235018,0,0,
2764,2764,1.3820000,252507,1382,18457.4551,26250.6641,-10.5976553106,-4.95182292895,0,0,
2765,2765,1.3825000,252507,1382,18459.9785,26251.8652,-7.15565961012,-7.04921582664,0,0,
2766,2766,1.3830000,252508,1383,18462.8633,26251.8652,-1.69308263142,-11.4546475701,0,0,
2767,2767,1.3835000,252508,1383,18459.9785,26239.9668,-3.37012490353,-23.7499109818,0,0,
2768,2768,1.3840000,252509,1384,18462.1426,26219.291,-1.24659341159,-37.6884656773,0,0,
2769,2769,1.3845000,252509,1384,18458.8965,26205.709,-4.59373194674,-40.9742648289,0,0,
2770,2770,1.3850000,252510,1385,18459.0176,26201.2598,-2.6254119962,-36.4789787802,0,0,
2771,2771,1.3855000,252510,1385,18463.2246,26197.6543,0.588283578675,-30.4991989701,0,0,
2772,2772,1.3860000,252511,1386,18458.5371,26191.7656,-2.52964398662,-25.7008110215,0,0,
2773,2773,1.3865000,252511,1386,18456.8535,26189.9609,-4.24641484963,-17.1765097456,0,0,
2774,2774,1.3870000,252512,1387,18459.498,26189.4824,-3.01747107172,-10.4658916098,0,0,
2775,2775,1.3875000,252512,1387,18459.9785,26173.7344,-3.68870254027,-17.7814322765,0,0,
2776,2776,1.3880000,252513,1388,18458.7773,26160.6328,-4.93502638579,-22.6169124836,0,0,
2777,2777,1.3885000,252513,1388,18453.9688,26155.8223,-9.15341894675,-20.0696340681,0,0,
2778,2778,1.3890000,252514,1389,18450.4824,26151.2559,-11.5600670757,-16.2679583742,0,0,
2779,2779,1.3895000,252514,1389,18454.0879,26145.6074,-5.88088111769,-12.2323716317,0,0,
2780,2780,1.3900000,252515,1390,18460.2188,26145.4863,2.05090938822,-4.2398626812,0,0,
2781,2781,1.3905000,252515,1390,18458.6562,26149.5723,0.7807646431,4.75594045998,0,0,
2782,2782,1.3910000,252516,1391,18449.4004,26160.5137,-8.42071885095,15.156448863,0,0,
2783,2783,1.3915000,252516,1391,18444.4727,26163.6387,-10.9420751203,14.4189189391,0,0,
2784,2784,1.3920000,252517,1392,18446.998,26153.1797,-5.97163581063,0.0188865780136,0,0,
2785,2785,1.3925000,252517,1392,18455.1699,26135.1484,2.4880879436,-20.4017647816,0,0,
2786,2786,1.3930000,252518,1393,18455.291,26123.127,1.28793409244,-30.319488115,0,0,
2787,2787,1.3935000,252518,1393,18457.334,26115.7969,3.37432472413,-32.0247660729,0,0,
2788,2788,1.3940000,252519,1394,18452.166,26100.0488,-0.939677350103,-36.0225989726,0,0,
2789,2789,1.3945000,252519,1394,18445.3145,26092.959,-8.04441150968,-30.0528410286,0,0,
2790,2790,1.3950000,252520,1395,18441.5879,26087.7891,-10.8317917677,-26.4527464466,0,0,
2791,2791,1.3955000,252520,1395,18442.3086,26075.8887,-7.15160410281,-31.0558776687,0,0,
2792,2792,1.3960000,252521,1396,18446.1562,26071.3203,-3.7127515594,-28.6407286534,0,0,
2793,2793,1.3965000,252521,1396,18443.3906,26073.2441,-4.47722573606,-24.2393088384,0,0,
2794,2794,1.3970000,252522,1397,18438.8223,26067.2344,-5.21484396176,-26.2616875023,0,0,
2795,2795,1.3975000,252522,1397,18436.2988,26060.9844,-4.31882089456,-26.8460073505,0,0,
2796,2796,1.3980000,252523,1398,18439.3047,26047.1621,1.98073330951,-34.6341996086,0,0,
2797,2797,1.3985000,252523,1398,18436.7793,26044.1562,3.21957149744,-30.6565948429,0,0,
2798,2798,1.3990000,252524,1399,18438.7031,26035.0215,5.15669030117,-30.1882493297,0,0,
2799,2799,1.3995000,252524,1399,18438.8223,26034.6582,7.61227348797,-21.872834607,0,0,
2800,2800,1.4000000,252525,1400,18432.0918,26036.584,4.05072724535,-13.2790370582,0,0,
2801,2801,1.4005000,252525,1400,18432.8145,26038.1465,4.41922329701,-5.78015220522,0,0,
2802,2802,1.4010000,252526,1401,18434.0156,26037.1855,7.59224277856,-3.68993660907,0,0,
2803,2803,1.4015000,252526,1401,18429.4473,26028.7715,5.35644116536,-6.93244296444,0,0,
2804,2804,1.4020000,252527,1402,18424.8809,26025.5234,1.65219263138,-10.0187546131,0,0,
2805,2805,1.4025000,252527,1402,18426.4434,26026.3652,5.62336628515,-10.2558089562,0,0,
2806,2806,1.4030000,252528,1403,18426.3223,26021.4375,9.3263715757,-16.1777967033,0,0,
2807,2807,1.4035000,252528,1403,18432.0918,26009.2969,16.8790649053,-23.9459500198,0,0,
2808,2808,1.4040000,252529,1404,18431.6113,25992.2285,16.4316011959,-30.1495536111,0,0,
2809,2809,1.4045000,252529,1404,18427.5254,25987.2988,13.3442547961,-24.6881190474,0,0,
2810,2810,1.4050000,252530,1405,18424.7598,25979.8457,12.75383171,-24.0754453271,0,0,
2811,2811,1.4055000,252530,1405,18418.1484,25974.9199,7.05320054193,-20.343000505,0,0,
2812,2812,1.4060000,252531,1406,18415.3848,25967.4668,8.21780624743,-17.5082597553,0,0,
2813,2813,1.4065000,252531,1406,18409.8535,25961.2168,5.07572178068,-13.7594679147,0,0,
2814,2814,1.4070000,252532,1407,18410.6953,25957.9707,6.23998651919,-9.34748340135,0,0,
2815,2815,1.4075000,252532,1407,18412.7402,25951.4785,8.52013856013,-6.03203415646,0,0,
2816,2816,1.4080000,252533,1408,18415.9844,25946.4316,11.9906168324,-3.47560053553,0,0,
2817,2817,1.4085000,252533,1408,18415.0234,25953.6426,11.5063203907,6.79044043872,0,0,
2818,2818,1.4090000,252534,1409,18415.3848,25956.0469,11.5803900369,12.0915713558,0,0,
2819,2819,1.4095000,252534,1409,18417.3066,25947.2734,12.8537359915,8.66589653943,0,0,
2820,2820,1.4100000,252535,1410,18416.9473,25937.2969,12.3343206041,4.06857185699,0,0,
2821,2821,1.4105000,252535,1410,18411.6582,25922.6309,7.82647791513,-4.70655361582,0,0,
2822,2822,1.4110000,252536,1411,18409.9746,25903.7598,6.61421521976,-17.7383929688,0,0,
2823,2823,1.4115000,252536,1411,18414.7832,25885.7285,10.9342768412,-27.5706880893,0,0,
2824,2824,1.4120000,252537,1412,18411.416,25887.7734,6.90112293514,-18.1750361935,0,0,
2825,2825,1.4125000,252537,1412,18406.7285,25893.7812,1.2521194133,-7.56000195103,0,0,
2826,2826,1.4130000,252538,1413,18408.291,25892.8203,1.75330086579,-4.02242082823,0,0,
2827,2827,1.4135000,252538,1413,18406.9707,25890.416,0.571074117103,-1.07662590775,0,0,
2828,2828,1.4140000,252539,1414,18404.9258,25891.2578,-0.018503209704,8.55467939316,0,0,
2829,2829,1.4145000,252539,1414,18406.7285,25879.8379,0.901976462495,6.44394134701,0,0,
2830,2830,1.4150000,252540,1415,18404.3262,25869.1406,-2.2536760745,2.64239066707,0,0,
2831,2831,1.4155000,252540,1415,18399.1562,25853.5156,-6.20864195991,-4.97938868078,0,0,
2832,2832,1.4160000,252541,1416,18401.4395,25847.5059,-5.71354630191,-4.36823898243,0,0,
2833,2833,1.4165000,252541,1416,18398.0742,25852.1934,-7.50018096665,1.53100076195,0,0,
2834,2834,1.4170000,252542,1417,18396.1504,25849.0684,-6.55896970742,1.96255801345,0,0,
2835,2835,1.4175000,252542,1417,18396.6328,25832.7188,-4.50412147593,-7.3411467643,0,0,
2836,2836,1.4180000,252543,1418,18396.9941,25819.2578,-3.1776648016,-12.0558575579,0,0,
2837,2837,1.4185000,252543,1418,18394.9492,25807.5957,-2.78601414231,-14.8140864456,0,0,
2838,2838,1.4190000,252544,1419,18395.4297,25795.2168,-3.41085127183,-14.5626394727,0,0,
2839,2839,1.4195000,252544,1419,18396.752,25785.3594,-1.16549884387,-12.7711552713,0,0,
2840,2840,1.4200000,252545,1420,18392.1855,25785.3594,-3.09869898622,-3.29139590606,0,0,
2841,2841,1.4205000,252545,1420,18392.1855,25793.0527,-4.5344849286,11.677916086,0,0,
2842,2842,1.4210000,252546,1421,18391.7051,25789.9277,-4.26616747811,14.1155717298,0,0,
2843,2843,1.4215000,252546,1421,18387.7363,25780.791,-6.06892836396,13.5253061086,0,0,
2844,2844,1.4220000,252547,1422,18383.1699,25772.6172,-9.56147388021,9.45544921103,0,0,
2845,2845,1.4225000,252547,1422,18373.6738,25766.8496,-15.7691480548,6.82370383762,0,0,
2846,2846,1.4230000,252548,1423,18371.6309,25766.3672,-12.8132021921,9.31492906061,0,0,
2847,2847,1.4235000,252548,1423,18377.2793,25763.9629,-5.14361077488,13.2997773249,0,0,
2848,2848,1.4240000,252549,1424,18383.0488,25763.9629,1.14842155834,22.3254641618,0,0,
2849,2849,1.4245000,252549,1424,18387.2559,25761.7988,5.73655053525,25.9406453622,0,0,
2850,2850,1.4250000,252550,1425,18387.8574,25752.3047,6.87437019133,21.5061557805,0,0,
2851,2851,1.4255000,252550,1425,18388.0977,25745.6934,6.30912729721,20.406106043,0,0,
2852,2852,1.4260000,252551,1426,18387.8574,25729.2266,6.72663600904,13.1428528693,0,0,
2853,2853,1.4265000,252551,1426,18387.9785,25712.0371,6.12093293282,6.75239321479,0,0,
2854,2854,1.4270000,252552,1427,18382.4473,25699.1738,-1.37491225985,3.80656044101,0,0,
2855,2855,1.4275000,252552,1427,18374.1543,25699.7754,-9.61109268924,14.8532390695,0,0,
2856,2856,1.4280000,252553,1428,18369.2266,25702.7812,-13.0496868889,24.3767385697,0,0,
2857,2857,1.4285000,252553,1428,18369.3457,25707.8281,-10.6824110987,30.1204242964,0,0,
2858,2858,1.4290000,252554,1429,18367.1816,25708.0703,-11.0582391471,32.1972971027,0,0,
2859,2859,1.4295000,252554,1429,18364.7793,25704.584,-11.5527500922,33.5754527922,0,0,
2860,2860,1.4300000,252555,1430,18369.3457,25695.4473,-5.3822601779,29.3508572031,0,0,
2861,2861,1.4305000,252555,1430,18370.3066,25685.834,-2.377547999,25.0006907009,0,0,
2862,2862,1.4310000,252556,1431,18372.7129,25671.5293,0.327053423697,15.9613064697,0,0,
2863,2863,1.4315000,252556,1431,18373.7949,25659.627,0.463615048528,10.0033591406,0,0,
2864,2864,1.4320000,252557,1432,18382.209,25648.4473,7.20667138452,2.85671121711,0,0,
2865,2865,1.4325000,252557,1432,18381.4863,25640.3965,4.33386725486,-1.38788330825,0,0,
2866,2866,1.4330000,252558,1433,18378.3613,25634.5059,-1.05003048547,-1.43775950061,0,0,
2867,2867,1.4335000,252558,1433,18380.2852,25628.7363,-0.251438213213,-0.0950890231984,0,0,
2868,2868,1.4340000,252559,1434,18391.3438,25616.4766,8.58242312239,-1.01403701269,0,0,
2869,2869,1.4345000,252559,1434,18418.8691,25587.3848,26.7145527202,-13.0252809309,0,0,
2870,2870,1.4350000,252560,1435,18428.8457,25562.9844,26.814159554,-20.6756839738,0,0,
2871,2871,1.4355000,252560,1435,18420.793,25552.2871,12.7508708229,-14.8498752289,0,0,
2872,2872,1.4360000,252561,1436,18420.9121,25540.9863,4.41772378919,-12.6512778151,0,0,
2873,2873,1.4365000,252561,1436,18416.4668,25528.0059,-3.51412973876,-16.1842517464,0,0,
2874,2874,1.4370000,252562,1437,18413.7012,25517.4297,-8.04744294698,-13.6734136061,0,0,
2875,2875,1.4375000,252562,1437,18413.0996,25508.7734,-10.9854776157,-6.60947869397,0,0,
2876,2876,1.4380000,252563,1438,18414.0605,25506.0098,-12.2818003817,3.92302607794,0,0,
2877,2877,1.4385000,252563,1438,18419.4707,25507.4512,-8.3143829151,15.0704545568,0,0,
2878,2878,1.4390000,252564,1439,18417.0664,25509.0137,-14.2385675196,26.2782150496,0,0,
2879,2879,1.4395000,252564,1439,18412.3789,25512.2598,-19.2444652086,35.2009724308,0,0,
2880,2880,1.4400000,252565,1440,18413.5801,25515.1465,-16.5117245852,39.6441950205,0,0,
2881,2881,1.4405000,252565,1440,18416.8262,25512.3809,-16.0691726474,37.4137396225,0,0,
2882,2882,1.4410000,252566,1441,18419.1113,25504.4453,-14.8003852311,31.8658782724,0,0,
2883,2883,1.4415000,252566,1441,18423.6777,25496.5137,-10.5781562963,29.6633053224,0,0,
2884,2884,1.4420000,252567,1442,18424.3984,25486.1777,-11.3672408564,21.7565425962,0,0,
2885,2885,1.4425000,252567,1442,18429.3262,25478.6035,-7.32758515389,15.6894273263,0,0,
2886,2886,1.4430000,252568,1443,18430.6504,25478.4824,-6.82346872735,15.7643023989,0,0,
2887,2887,1.4435000,252568,1443,18433.6543,25470.0684,-7.17335348252,11.8204650523,0,0,
2888,2888,1.4440000,252569,1444,18437.1406,25467.4238,-7.04927058461,15.6631204518,0,0,
2889,2889,1.4445000,252569,1444,18436.9004,25459.8516,-8.93558368473,13.3501855813,0,0,
2890,2890,1.4450000,252570,1445,18442.1895,25449.7559,-4.85979197468,9.33271344543,0,0,
2891,2891,1.4455000,252570,1445,18443.9922,25445.7891,-5.05418112176,10.4880512443,0,0,
2892,2892,1.4460000,252571,1446,18445.7949,25443.2637,-3.89119871286,15.1861731007,0,0,
2893,2893,1.4465000,252571,1446,18442.3086,25443.0234,-8.01126027983,20.4466139014,0,0,
2894,2894,1.4470000,252572,1447,18443.0293,25436.1719,-8.61873610162,16.8538821499,0,0,
2895,2895,1.4475000,252572,1447,18449.6426,25426.7969,-3.64608057385,10.9888805045,0,0,
2896,2896,1.4480000,252573,1448,18454.0879,25419.1016,-1.55193123672,5.6975517382,0,0,
2897,2897,1.4485000,252573,1448,18452.166,25416.6973,-5.05606546376,2.2886822578,0,0,
2898,2898,1.4490000,252574,1449,18456.0117,25413.9355,-3.17100829281,1.02226864952,0,0,
2899,2899,1.4495000,252574,1449,18452.8867,25412.373,-7.23776534632,3.71999436584,0,0,
2900,2900,1.4500000,252575,1450,18452.0449,25409.125,-8.97760136945,4.78832919113,0,0,
2901,2901,1.4505000,252575,1450,18453.3691,25399.3906,-7.0568246569,-0.0917873506908,0,0,
2902,2902,1.4510000,252576,1451,18460.9395,25392.1777,-1.161160193,-2.73001607801,0,0,
2903,2903,1.4515000,252576,1451,18461.1816,25392.5391,-2.68331226955,0.142194678096,0,0,
2904,2904,1.4520000,252577,1452,18461.3008,25391.9375,-4.38539556435,-1.16714626621,0,0,
2905,2905,1.4525000,252577,1452,18460.3398,25387.7285,-5.44903070954,-6.94688352595,0,0,
2906,2906,1.4530000,252578,1453,18459.9785,25382.8027,-5.91498852203,-11.7012399896,0,0,
2907,2907,1.4535000,252578,1453,18460.2188,25377.5137,-5.42778915148,-15.1959823569,0,0,
2908,2908,1.4540000,252579,1454,18459.0176,25374.2676,-6.64145194937,-13.0222194424,0,0,
2909,2909,1.4545000,252579,1454,18469.5957,25365.4922,-2.01487221503,-11.5144508916,0,0,
2910,2910,1.4550000,252580,1455,18467.4316,25359.7246,-5.09305101759,-10.6870677267,0,0,
2911,2911,1.4555000,252580,1455,18471.3984,25355.3965,1.6018921683,-11.1692020733,0,0,
2912,2912,1.4560000,252581,1456,18473.5625,25351.4297,1.95738923098,-13.486182433,0,0,
2913,2913,1.4565000,252581,1456,18469.4746,25351.6699,0.424294115012,-15.4992031667,0,0,
2914,2914,1.4570000,252582,1457,18460.459,25360.2031,-4.21863428993,-8.83587131291,0,0,
2915,2915,1.4575000,252582,1457,18457.5762,25361.7656,-3.70897999051,-7.47001022787,0,0,
2916,2916,1.4580000,252583,1458,18459.0176,25357.7988,0.21511599616,-12.4930457385,0,0,
2917,2917,1.4585000,252583,1458,18465.0273,25349.625,7.80301067325,-21.6904944144,0,0,
2918,2918,1.4590000,252584,1459,18469.8359,25339.7676,12.2375510466,-28.8792828544,0,0,
2919,2919,1.4595000,252584,1459,18471.8789,25325.4668,15.2836603006,-39.4145203372,0,0,
2920,2920,1.4600000,252585,1460,18469.4746,25309.5996,14.686207032,-50.3464954245,0,0,
2921,2921,1.4605000,252585,1460,18468.3926,25307.7949,12.1654409358,-46.806399348,0,0,
2922,2922,1.4610000,252586,1461,18466.4707,25310.0781,10.943718904,-38.4404622179,0,0,
2923,2923,1.4615000,252586,1461,18468.0332,25308.877,13.4910473848,-31.8571229427,0,0,
2924,2924,1.4620000,252587,1462,18467.0703,25306.7129,13.288207969,-29.5179693517,0,0,
2925,2925,1.4625000,252587,1462,18466.7109,25304.4297,13.9346220294,-29.0731718548,0,0,
2926,2926,1.4630000,252588,1463,18468.5137,25302.748,16.943653314,-29.6871885377,0,0,
2927,2927,1.4635000,252588,1463,18470.5566,25293.25,17.5614160498,-32.3033588457,0,0,
2928,2928,1.4640000,252589,1464,18474.6426,25283.875,19.5562387138,-32.6373146143,0,0,
2929,2929,1.4645000,252589,1464,18480.4121,25272.9375,23.7894730113,-33.6181712083,0,0,
2930,2930,1.4650000,252590,1465,18483.5391,25262.1172,24.7653828243,-33.0643722459,0,0,
2931,2931,1.4655000,252590,1465,18481.8555,25259.7129,21.4375516553,-26.3596641758,0,0,
2932,2932,1.4660000,252591,1466,18482.0957,25260.3145,21.1111697976,-15.8337846083,0,0,
2933,2933,1.4665000,252591,1466,18477.168,25264.041,16.66897116,-4.71758826455,0,0,
2934,2934,1.4670000,252592,1467,18478.8496,25257.791,16.9222791541,-4.00597604315,0,0,
2935,2935,1.4675000,252592,1467,18476.5664,25249.0156,13.2260032949,-5.11847355412,0,0,
2936,2936,1.4680000,252593,1468,18483.5391,25239.4004,17.7605454963,-7.8395561647,0,0,
2937,2937,1.4685000,252593,1468,18479.2109,25238.7988,13.0404675526,-5.68102509688,0,0,
2938,2938,1.4690000,252594,1469,18476.0859,25242.0449,9.05989943192,1.23000631312,0,0,
2939,2939,1.4695000,252594,1469,18466.9512,25245.6504,2.03013150418,9.55231572786,0,0,
2940,2940,1.4700000,252595,1470,18465.3887,25253.584,1.75290220384,20.5900286546,0,0,
2941,2941,1.4705000,252595,1470,18462.2637,25253.2246,1.02602822279,23.6226876726,0,0,
2942,2942,1.4710000,252596,1471,18461.0605,25243.7266,0.30925767957,17.734786655,0,0,
2943,2943,1.4715000,252596,1471,18462.502,25227.1406,2.76540420598,5.29520520228,0,0,
2944,2944,1.4720000,252597,1472,18466.4707,25211.1543,6.38616948833,-5.87072708803,0,0,
2945,2945,1.4725000,252597,1472,18470.918,25190.1172,10.5596302369,-19.0639903564,0,0,
2946,2946,1.4730000,252598,1473,18474.043,25180.6191,12.3058661586,-18.9504674823,0,0,
2947,2947,1.4735000,252598,1473,18476.8066,25188.7949,13.1677563275,-3.17026724453,0,0,
2948,2948,1.4740000,252599,1474,18481.7363,25195.2871,14.9845186448,11.0305330586,0,0,
2949,2949,1.4745000,252599,1474,18483.7793,25200.334,8.49095787536,25.8444737783,0,0,
2950,2950,1.4750000,252600,1475,18481.7363,25195.4062,4.40265064982,27.0048519379,0,0,
2951,2951,1.4755000,252600,1475,18482.9375,25192.0391,5.66232360513,27.1084814373,0,0,
2952,2952,1.4760000,252601,1476,18486.7832,25182.9043,5.88539498167,20.6836108972,0,0,
2953,2953,1.4765000,252601,1476,18494.7168,25166.3184,12.5428897673,6.06091529048,0,0,
2954,2954,1.4770000,252602,1477,18499.7656,25153.4551,16.2222263683,-2.4578276996,0,0,
2955,2955,1.4775000,252602,1477,18499.166,25142.7578,12.2629951316,-4.48765453569,0,0,
2956,2956,1.4780000,252603,1478,18494.959,25133.2598,4.72596337525,-4.83890912356,0,0,
2957,2957,1.4785000,252603,1478,18489.4277,25133.0215,-3.12834480953,2.30031958349,0,0,
2958,2958,1.4790000,252604,1479,18481.6152,25136.9863,-11.9448963387,13.3348732713,0,0,
2959,2959,1.4795000,252604,1479,18479.0918,25140.4746,-13.0125476606,21.6428728173,0,0,
2960,2960,1.4800000,252605,1480,18478.1309,25145.5215,-11.4299043819,28.5171307003,0,0,
2961,2961,1.4805000,252605,1480,18480.7734,25149.8496,-9.95586795652,31.2033851329,0,0,
2962,2962,1.4810000,252606,1481,18487.0254,25145.1621,-4.6313019754,26.3879576496,0,0,
2963,2963,1.4815000,252606,1481,18488.707,25131.9395,-4.24668324669,17.6973705524,0,0,
2964,2964,1.4820000,252607,1482,18485.1016,25122.084,-8.14195493295,11.4509965752,0,0,
2965,2965,1.4825000,252607,1482,18481.2559,25106.4551,-11.4206123252,0.47295682871,0,0,
2966,2966,1.4830000,252608,1483,18479.4512,25097.6816,-12.1998139773,-4.13831975499,0,0,
2967,2967,1.4835000,252608,1483,18480.5332,25094.4355,-12.0783198283,1.22894951439,0,0,
2968,2968,1.4840000,252609,1484,18478.7305,25099.8438,-14.6830052529,13.6576935708,0,0,
2969,2969,1.4845000,252609,1484,18475.4863,25115.1113,-17.0190103433,31.8039419403,0,0,
2970,2970,1.4850000,252610,1485,18475.7246,25118.4766,-15.567573365,36.8413089333,0,0,
2971,2971,1.4855000,252610,1485,18476.6875,25124.8457,-12.8701571508,40.3904080333,0,0,
2972,2972,1.4860000,252611,1486,18481.0137,25130.6172,-7.41166648964,43.2520637771,0,0,
2973,2973,1.4865000,252611,1486,18482.457,25128.6934,-4.3469853688,37.8048541603,0,0,
2974,2974,1.4870000,252612,1487,18487.5059,25120.0391,-1.22050886348,28.5708873099,0,0,
2975,2975,1.4875000,252612,1487,18487.5059,25107.8984,-2.69779409234,18.2533693763,0,0,
2976,2976,1.4880000,252613,1488,18489.3086,25094.0762,-3.95045529923,7.19463321582,0,0,
2977,2977,1.4885000,252613,1488,18488.8281,25088.5469,-4.27833140175,0.696333721443,0,0,
2978,2978,1.4890000,252614,1489,18484.2598,25089.8672,-8.93426249464,1.664302345,0,0,
2979,2979,1.4895000,252614,1489,18485.2207,25091.1895,-6.3769505631,4.08516922016,0,0,
2980,2980,1.4900000,252615,1490,18482.5762,25094.4355,-9.15139053662,7.35562351601,0,0,
2981,2981,1.4905000,252615,1490,18487.0254,25097.8027,-4.86316130383,12.0164216515,0,0,
2982,2982,1.4910000,252616,1491,18489.0684,25094.3145,-5.15587623195,10.8225869293,0,0,
2983,2983,1.4915000,252616,1491,18483.7793,25088.5469,-11.1648783616,7.35832456534,0,0,
2984,2984,1.4920000,252617,1492,18483.9004,25085.6621,-12.3430944882,5.07961179939,0,0,
2985,2985,1.4925000,252617,1492,18484.1387,25079.5312,-12.4526303243,0.76579753583,0,0,
2986,2986,1.4930000,252618,1493,18484.2598,25075.5645,-12.6315571883,-2.47410336816,0,0,
2987,2987,1.4935000,252618,1493,18487.0254,25068.9531,-10.5070995144,-9.68022734876,0,0,
2988,2988,1.4940000,252619,1494,18483.1777,25073.2812,-14.6940790316,-4.4438363762,0,0,
2989,2989,1.4945000,252619,1494,18481.7363,25073.5215,-19.6953025799,0.118355888465,0,0,
2990,2990,1.4950000,252620,1495,18479.332,25069.1934,-19.8324847099,-0.489088810987,0,0,
2991,2991,1.4955000,252620,1495,18478.6113,25067.2715,-17.1404097569,-0.995994212052,0,0,
2992,2992,1.4960000,252621,1496,18476.0859,25058.1348,-18.7432646794,-7.76986090015,0,0,
2993,2993,1.4965000,252621,1496,18478.7305,25055.4902,-13.4846296476,-9.49762954206,0,0,
2994,2994,1.4970000,252622,1497,18478.25,25051.7637,-10.2168394227,-12.3717052856,0,0,
2995,2995,1.4975000,252622,1497,18478.9707,25041.3066,-6.97831687754,-18.2932182186,0,0,
2996,2996,1.4980000,252623,1498,18479.8125,25031.3301,-4.33243858691,-22.8116229368,0,0,
2997,2997,1.4985000,252623,1498,18478.9707,25024.1172,-3.57048826325,-25.8766251552,0,0,
2998,2998,1.4990000,252624,1499,18474.043,25025.7988,-6.17713243423,-20.2631316034,0,0,
2999,2999,1.4995000,252624,1499,18475.6055,25030.0078,-2.37026593757,-13.6076244289,0,0,
3000,3000,1.5000000,252625,1500,18470.6777,25040.5859,-3.79639741517,-4.03635460104,0,0,
3001,3001,1.5005000,252625,1500,18471.6387,25042.8691,-2.82418177695,-4.57529451252,0,0,
3002,3002,1.5010000,252626,1501,18469.2344,25041.5469,-4.23118323563,-5.99951414068,0,0,
3003,3003,1.5015000,252626,1501,18472.7207,25028.2031,0.225248671215,-13.6115431469,0,0,
3004,3004,1.5020000,252627,1502,18473.9219,25017.748,3.0700511298,-19.31481472,0,0,
3005,3005,1.5025000,252627,1502,18476.2051,25008.25,6.37615338423,-22.968823791,0,0,
3006,3006,1.5030000,252628,1503,18476.2051,25004.0449,6.97506516943,-23.6442453129,0,0,
3007,3007,1.5035000,252628,1503,18463.7051,25010.4141,-4.42073515452,-12.7825151668,0,0,
3008,3008,1.5040000,252629,1504,18458.7773,25017.8672,-7.15227734356,-3.69561638166,0,0,
3009,3009,1.5045000,252629,1504,18456.9746,25011.7363,-5.68051441634,-8.75212326555,0,0,
3010,3010,1.5050000,252630,1505,18462.7441,25007.8906,1.56469647703,-8.53010743715,0,0,
3011,3011,1.5055000,252630,1505,18466.5898,25004.8848,6.46605086249,-9.90270868344,0,0,
3012,3012,1.5060000,252631,1506,18478.0098,25002.9609,16.3405246884,-8.9153281256,0,0,
3013,3013,1.5065000,252631,1506,18475.3652,25013.5391,14.0200316111,2.78960918457,0,0,
3014,3014,1.5070000,252632,1507,18471.7598,25021.7129,8.89139518812,12.3414937848,0,0,
3015,3015,1.5075000,252632,1507,18469.1152,25019.6699,6.47379223911,12.4896113672,0,0,
3016,3016,1.5080000,252633,1508,18477.168,25011.1348,11.7075629142,6.56079627028,0,0,
3017,3017,1.5085000,252633,1508,18481.0137,25002.1191,14.8381430598,-3.39695086075,0,0,
3018,3018,1.5090000,252634,1509,18471.998,25014.623,6.6457588813,5.41020678158,0,0,
3019,3019,1.5095000,252634,1509,18464.3066,25022.4355,1.62355541037,9.92449351319,0,0,
3020,3020,1.5100000,252635,1510,18459.9785,25014.9824,-0.564059393861,0.616616645043,0,0,
3021,3021,1.5105000,252635,1510,18456.1328,24996.9512,-2.37291342634,-13.7555611964,0,0,
3022,3022,1.5110000,252636,1511,18456.4941,24980.3652,-1.27668289226,-22.0395630433,0,0,
3023,3023,1.5115000,252636,1511,18463.8262,24976.5176,6.70541606552,-17.8834541039,0,0,
3024,3024,1.5120000,252637,1512,18466.9512,24971.9512,8.19249155045,-16.4210392771,0,0,
3025,3025,1.5125000,252637,1512,18470.1973,24961.7324,9.89942529537,-18.5666183914,0,0,
3026,3026,1.5130000,252638,1513,18474.6426,24952.2363,12.0449266093,-20.6656898031,0,0,
3027,3027,1.5135000,252638,1513,18477.2871,24953.5566,11.7116987281,-14.5434994242,0,0,
3028,3028,1.5140000,252639,1514,18471.0371,24959.5684,4.65308459335,-5.4606995443,0,0,
3029,3029,1.5145000,252639,1514,18462.3828,24968.1035,-6.39829785968,7.77591932921,0,0,
3030,3030,1.5150000,252640,1515,18461.541,24973.2715,-5.19290129543,16.1203204932,0,0,
3031,3031,1.5155000,252640,1515,18460.7012,24969.7871,-3.45087303478,13.8604898987,0,0,
3032,3032,1.5160000,252641,1516,18457.6953,24961.8516,-5.44396431816,9.18604796662,0,0,
3033,3033,1.5165000,252641,1516,18458.2949,24957.8848,-3.1956458306,6.31701596692,0,0,
3034,3034,1.5170000,252642,1517,18461.4219,24966.7812,2.33057323676,14.0418078584,0,0,
3035,3035,1.5175000,252642,1517,18459.377,24977.5996,1.98841417637,24.1008185575,0,0,
3036,3036,1.5180000,252643,1518,18466.7109,24984.3301,9.11040745113,28.1101792161,0,0,
3037,3037,1.5185000,252643,1518,18470.4355,24987.2168,11.9884166547,25.6608080952,0,0,
3038,3038,1.5190000,252644,1519,18465.5078,24978.6797,7.78611042563,12.9007786086,0,0,
3039,3039,1.5195000,252644,1519,18465.9902,24967.3828,7.98252733529,-0.448433844397,0,0,
3040,3040,1.5200000,252645,1520,18464.0664,24962.0938,7.64788682146,-8.27780402806,0,0,
3041,3041,1.5205000,252645,1520,18464.3066,24961.4922,5.82181815799,-10.5091813531,0,0,
3042,3042,1.5210000,252646,1521,18458.2949,24961.373,0.0833795268221,-9.5880778746,0,0,
3043,3043,1.5215000,252646,1521,18458.8965,24961.373,0.380224022138,-4.03996867624,0,0,
3044,3044,1.5220000,252647,1522,18457.6953,24960.8906,0.364811816638,-2.02816122849,0,0,
3045,3045,1.5225000,252647,1522,18451.6855,24962.8145,-3.58767479806,1.28082580746,0,0,
3046,3046,1.5230000,252648,1523,18452.5254,24965.8203,-0.915860956988,1.98207166801,0,0,
3047,3047,1.5235000,252648,1523,18454.9316,24972.3105,3.19801421726,5.49202074642,0,0,
3048,3048,1.5240000,252649,1524,18458.0566,24977.959,5.91085277038,6.70955228818,0,0,
3049,3049,1.5245000,252649,1524,18453.4883,24984.4512,1.98711790931,9.23917103963,0,0,
3050,3050,1.5250000,252650,1525,18451.3242,24982.6484,-0.725698656389,5.77916369096,0,0,
3051,3051,1.5255000,252650,1525,18450.123,24975.3145,-1.36679875571,-3.69643094774,0,0,
3052,3052,1.5260000,252651,1526,18447.959,24967.9824,-3.9843849096,-10.6851483618,0,0,
3053,3053,1.5265000,252651,1526,18440.9863,24974.1113,-6.51668132556,-6.85119532967,0,0,
3054,3054,1.5270000,252652,1527,18441.8281,24980.123,-3.76698450851,-1.69336599795,0,0,
3055,3055,1.5275000,252652,1527,18445.3145,24984.6895,1.34344041321,3.70751466983,0,0,
3056,3056,1.5280000,252653,1528,18440.9863,24987.8145,-3.69335960645,7.38576449788,0,0,
3057,3057,1.5285000,252653,1528,18441.1074,24988.416,-1.37733905622,4.47197338862,0,0,
3058,3058,1.5290000,252654,1529,18443.6309,24983.4902,4.52236774321,-6.47315178278,0,0,
3059,3059,1.5295000,252654,1529,18443.2715,24967.3828,7.13619949876,-22.3573009556,0,0,
3060,3060,1.5300000,252655,1530,18438.9434,24959.6895,4.67467617154,-25.7323028944,0,0,
3061,3061,1.5305000,252655,1530,18434.7363,24951.6348,2.23875990711,-25.1238745956,0,0,
3062,3062,1.5310000,252656,1531,18431.7324,24952.7168,-0.222345027569,-15.4885178903,0,0,
3063,3063,1.5315000,252656,1531,18432.2129,24968.9453,0.594254788022,2.81980008909,0,0,
3064,3064,1.5320000,252657,1532,18439.3047,24974.3535,6.1057177535,7.59765258123,0,0,
3065,3065,1.5325000,252657,1532,18448.4395,24974.9551,12.4661174066,9.0621062756,0,0,
3066,3066,1.5330000,252658,1533,18452.8867,24981.2051,13.3182306115,13.392886318,0,0,
3067,3067,1.5335000,252658,1533,18448.5605,24989.5,6.62483217618,15.3456968635,0,0,
3068,3068,1.5340000,252659,1534,18441.1074,25002.4824,0.488828217777,19.5611510966,0,0,
3069,3069,1.5345000,252659,1534,18430.0488,25011.8574,-9.67311022202,22.0981114416,0,0,
3070,3070,1.5350000,252660,1535,18428.6074,25015.3438,-8.31304109084,19.7779993284,0,0,
3071,3071,1.5355000,252660,1535,18426.2012,25021.3516,-7.34113771837,19.4367751293,0,0,
3072,3072,1.5360000,252661,1536,18429.6875,25019.9121,-2.71987949667,14.0901549813,0,0,
3073,3073,1.5365000,252661,1536,18426.8027,25022.1953,-4.05322206601,9.93025765269,0,0,
3074,3074,1.5370000,252662,1537,18424.1582,25034.0938,-4.02365914693,11.6054527664,0,0,
3075,3075,1.5375000,252662,1537,18422.7168,25046.4746,-2.59684827377,14.5904251033,0,0,
3076,3076,1.5380000,252663,1538,18420.1914,25053.8066,-3.94017433203,12.8069549475,0,0,
3077,3077,1.5385000,252663,1538,18421.3945,25060.8984,-1.1735522904,9.70172335471,0,0,
3078,3078,1.5390000,252664,1539,18421.6348,25064.0234,2.26284795033,4.59210868711,0,0,
3079,3079,1.5395000,252664,1539,18433.7754,25046.5957,13.1643668671,-16.4331244157,0,0,
3080,3080,1.5400000,252665,1540,18440.1465,25040.9453,18.6641689936,-26.284044007,0,0,
3081,3081,1.5405000,252665,1540,18437.9824,25053.3262,12.9302256008,-20.0369417375,0,0,
3082,3082,1.5410000,252666,1541,18432.4531,25064.8672,7.01731154572,-13.8844584891,0,0,
3083,3083,1.5415000,252666,1541,18429.6875,25066.6699,2.85670133676,-13.1218391634,0,0,
3084,3084,1.5420000,252667,1542,18429.207,25069.5547,2.46814883908,-13.1861337058,0,0,
3085,3085,1.5425000,252667,1542,18430.2891,25070.1562,4.01568384291,-15.6090816417,0,0,
3086,3086,1.5430000,252668,1543,18428.4863,25073.1582,1.83220021298,-17.871980942,0,0,
3087,3087,1.5435000,252668,1543,18433.1738,25074.9629,5.43982117917,-20.8496214433,0,0,
3088,3088,1.5440000,252669,1544,18430.2891,25074.123,1.01028950225,-25.5504487023,0,0,
3089,3089,1.5445000,252669,1544,18431.3711,25079.8906,1.93128319117,-22.873043864,0,0,
3090,3090,1.5450000,252670,1545,18432.9336,25088.7871,1.33572090444,-15.2825006603,0,0,
3091,3091,1.5455000,252670,1545,18432.8145,25092.9922,-0.226356781248,-13.3999951239,0,0,
3092,3092,1.5460000,252671,1546,18432.2129,25096.5996,-2.9338069179,-11.611938752,0,0,
3093,3093,1.5465000,252671,1546,18430.1699,25101.166,-2.90066779712,-12.6002541455,0,0,
3094,3094,1.5470000,252672,1547,18434.7363,25106.6953,-0.249715708838,-10.6546040715,0,0,
3095,3095,1.5475000,252672,1547,18431.3711,25108.5,-4.55874992787,-9.6425250027,0,0,
3096,3096,1.5480000,252673,1548,18432.6934,25112.2266,-5.29568705313,-6.2701765663,0,0,
3097,3097,1.5485000,252673,1548,18433.5332,25119.4375,-4.92606643403,-2.99796817401,0,0,
3098,3098,1.5490000,252674,1549,18434.9766,25123.2832,-2.96773712173,-5.17235852034,0,0,
3099,3099,1.5495000,252674,1549,18434.7363,25133.0215,-2.16730174684,1.36135642431,0,0,
3100,3100,1.5500000,252675,1550,18435.2168,25137.5879,-1.39459164088,2.91336386506,0,0,
3101,3101,1.5505000,252675,1550,18436.5391,25146.3652,-0.628495154941,10.1356561526,0,0,
3102,3102,1.5510000,252676,1551,18438.1016,25155.2578,-1.31861727181,15.4337400147,0,0,
3103,3103,1.5515000,252676,1551,18438.9434,25160.1875,-3.19595905198,12.2089149568,0,0,
3104,3104,1.5520000,252677,1552,18438.4629,25170.1641,-7.3381903176,14.3340107555,0,0,
3105,3105,1.5525000,252677,1552,18442.1895,25178.2168,-7.31193405693,16.351663393,0,0,
3106,3106,1.5530000,252678,1553,18446.6367,25185.0684,-6.12657038395,14.8225688759,0,0,
3107,3107,1.5535000,252678,1553,18443.9922,25184.5879,-9.481536049,4.78435825479,0,0,
3108,3108,1.5540000,252679,1554,18444.2324,25180.2598,-7.75373664303,-7.83852694848,0,0,
3109,3109,1.5545000,252679,1554,18448.1992,25182.3047,-4.56598546409,-10.04713294,0,0,
3110,3110,1.5550000,252680,1555,18449.6426,25185.6699,-4.37625942548,-8.77302882668,0,0,
3111,3111,1.5555000,252680,1555,18449.041,25187.2324,-5.35822555286,-9.32188127432,0,0,
3112,3112,1.5560000,252681,1556,18448.8008,25194.084,-7.67978693603,-2.79857408435,0,0,
3113,3113,1.5565000,252681,1556,18449.2812,25202.498,-7.85997953396,1.37373403358,0,0,
3114,3114,1.5570000,252682,1557,18450.8438,25204.1797,-6.47108966356,-4.01047879247,0,0,
3115,3115,1.5575000,252682,1557,18451.4434,25208.627,-6.02759652302,-4.59459770704,0,0,
3116,3116,1.5580000,252683,1558,18451.084,25213.0762,-7.57946144806,-3.62382843652,0,0,
3117,3117,1.5585000,252683,1558,18450.7246,25219.4453,-8.77977493885,-1.7436005842,0,0,
3118,3118,1.5590000,252684,1559,18450.002,25224.1348,-8.22842459887,0.16317928463,0,0,
3119,3119,1.5595000,252684,1559,18446.998,25234.5918,-12.5959120267,9.95546127344,0,0,
3120,3120,1.5600000,252685,1560,18450.3633,25233.2715,-8.4988379653,4.44747610899,0,0,
3121,3121,1.5605000,252685,1560,18457.9355,25233.6309,-2.55541125185,-1.96172407315,0,0,
3122,3122,1.5610000,252686,1561,18459.8594,25234.4707,-0.375483565852,-5.00760909285,0,0,
3123,3123,1.5615000,252686,1561,18457.4551,25243.127,-3.71122871693,3.6624939333,0,0,
3124,3124,1.5620000,252687,1562,18452.166,25250.5781,-8.03746523909,8.39672397501,0,0,
3125,3125,1.5625000,252687,1562,18449.2812,25254.0645,-9.08866538935,8.9975471443,0,0,
3126,3126,1.5630000,252688,1563,18448.4395,25254.0645,-8.35374167343,4.45992147003,0,0,
3127,3127,1.5635000,252688,1563,18448.4395,25252.623,-7.73084887473,-0.292125230899,0,0,
3128,3128,1.5640000,252689,1564,18448.5605,25257.0703,-6.48465214293,0.974394504653,0,0,
3129,3129,1.5645000,252689,1564,18447.1172,25254.5469,-6.06270256786,-3.86844654735,0,0,
3130,3130,1.5650000,252690,1565,18447.3574,25248.6562,-5.48262169915,-8.59423111599,0,0,
3131,3131,1.5655000,252690,1565,18451.6855,25248.7754,-0.899363786134,-6.838142483,0,0,
3132,3132,1.5660000,252691,1566,18449.1602,25258.752,-3.27152426326,3.50548020934,0,0,
3133,3133,1.5665000,252691,1566,18452.5254,25265.8438,2.72865559907,6.90039724359,0,0,
3134,3134,1.5670000,252692,1567,18451.8047,25271.252,1.15948895269,9.68392246434,0,0,
3135,3135,1.5675000,252692,1567,18455.1699,25271.8535,4.66439081928,10.5734506802,0,0,
3136,3136,1.5680000,252693,1568,18458.5371,25282.7949,5.95406287736,20.0428977213,0,0,
3137,3137,1.5685000,252693,1568,18459.0176,25293.4922,5.85540342451,24.8716201924,0,0,
3138,3138,1.5690000,252694,1569,18451.2051,25296.498,-0.0213517798037,21.1387807714,0,0,
3139,3139,1.5695000,252694,1569,18449.5215,25290.2441,1.13386060469,12.2313370918,0,0,
3140,3140,1.5700000,252695,1570,18447.7188,25284.7168,1.69288488036,6.85387341645,0,0,
3141,3141,1.5705000,252695,1570,18451.6855,25286.6406,6.43827367249,10.0033545062,0,0,
3142,3142,1.5710000,252696,1571,18443.2715,25295.7754,-0.81429836821,18.0034890064,0,0,
3143,3143,1.5715000,252696,1571,18446.7559,25299.1406,2.74579767203,17.0984408742,0,0,
3144,3144,1.5720000,252697,1572,18448.4395,25296.375,3.31168300417,11.155677627,0,0,
3145,3145,1.5725000,252697,1572,18451.4434,25297.5781,4.2186143813,11.5552855179,0,0,
3146,3146,1.5730000,252698,1573,18449.6426,25304.5488,1.51249273597,15.1911041074,0,0,
3147,3147,1.5735000,252698,1573,18449.8809,25317.6504,3.42505179562,22.0459083983,0,0,
3148,3148,1.5740000,252699,1574,18448.3184,25326.3066,4.77868317171,23.2193086772,0,0,
3149,3149,1.5745000,252699,1574,18447.3574,25329.1895,4.84727121535,20.1916640507,0,0,
3150,3150,1.5750000,252700,1575,18444.4727,25338.4473,3.61255969483,23.7236491087,0,0,
3151,3151,1.5755000,252700,1575,18446.0352,25347.3418,7.08869911942,25.8343240097,0,0,
3152,3152,1.5760000,252701,1576,18445.7949,25355.875,6.97334069484,27.7771221002,0,0,
3153,3153,1.5765000,252701,1576,18448.1992,25357.5605,9.77867101035,20.9795886905,0,0,
3154,3154,1.5770000,252702,1577,18445.6738,25367.2949,8.34853100333,19.8885327907,0,0,
3155,3155,1.5775000,252702,1577,18444.4727,25369.7012,8.48069437409,13.1745656371,0,0,
3156,3156,1.5780000,252703,1578,18445.1934,25371.1426,9.35700116806,7.54015407908,0,0,
3157,3157,1.5785000,252703,1578,18440.7461,25377.5137,5.85000703082,5.79909421073,0,0,
3158,3158,1.5790000,252704,1579,18437.9824,25367.1738,5.83767481596,-7.86208375005,0,0,
3159,3159,1.5795000,252704,1579,18435.3379,25360.9238,3.88148920769,-13.7951298603,0,0,
3160,3160,1.5800000,252705,1580,18430.6504,25364.0488,1.49462186289,-12.0668130726,0,0,
3161,3161,1.5805000,252705,1580,18430.6504,25377.9941,2.08469368116,-4.90895055302,0,0,
3162,3162,1.5810000,252706,1581,18440.1465,25388.9316,12.7791216758,-0.572569474656,0,0,
3163,3163,1.5815000,252706,1581,18442.4297,25400.4707,14.8987394087,5.49933252991,0,0,
3164,3164,1.5820000,252707,1582,18445.0742,25414.5332,17.6786780509,11.1380599953,0,0,
3165,3165,1.5825000,252707,1582,18440.5059,25430.7637,13.711815948,17.5205008845,0,0,
3166,3166,1.5830000,252708,1583,18434.9766,25439.7793,9.00620481927,14.9526415476,0,0,
3167,3167,1.5835000,252708,1583,18435.9395,25440.9785,9.52619491498,6.1095105171,0,0,
3168,3168,1.5840000,252709,1584,18445.4355,25432.0859,17.0099640502,-10.5175304634,0,0,
3169,3169,1.5845000,252709,1584,18453.0078,25433.6484,21.8039501163,-14.8710440497,0,0,
3170,3170,1.5850000,252710,1585,18461.3008,25431.3652,24.4654841903,-19.7757787626,0,0,
3171,3171,1.5855000,252710,1585,18466.1094,25434.3691,23.0808902411,-20.2259760092,0,0,
3172,3172,1.5860000,252711,1586,18462.2637,25438.4551,15.0534221548,-20.8616399703,0,0,
3173,3173,1.5865000,252711,1586,18463.584,25444.5859,13.7521990757,-21.4492127572,0,0,
3174,3174,1.5870000,252712,1587,18463.7051,25449.3926,9.48025297263,-21.6422900271,0,0,
3175,3175,1.5875000,252712,1587,18464.666,25449.6348,6.79706795716,-22.6652041726,0,0,
3176,3176,1.5880000,252713,1588,18458.6562,25455.5234,-2.52484056429,-20.2357157588,0,0,
3177,3177,1.5885000,252713,1588,18450.8438,25467.4238,-10.1777904442,-15.2658676618,0,0,
3178,3178,1.5890000,252714,1589,18449.041,25478.002,-9.39793115228,-12.0045834352,0,0,
3179,3179,1.5895000,252714,1589,18453.8496,25483.5312,-3.79030978023,-10.6054798434,0,0,
3180,3180,1.5900000,252715,1590,18454.5703,25486.0547,-2.96443347066,-11.1459783565,0,0,
3181,3181,1.5905000,252715,1590,18456.9746,25495.6719,-2.3822412601,-6.07465041589,0,0,
3182,3182,1.5910000,252716,1591,18461.541,25503.3652,0.834171839422,-5.2042911705,0,0,
3183,3183,1.5915000,252716,1591,18460.459,25503.8457,-3.59114456543,-11.5845499582,0,0,
3184,3184,1.5920000,252717,1592,18462.8633,25508.1719,-4.93544446461,-12.7773714232,0,0,
3185,3185,1.5925000,252717,1592,18465.5078,25509.0137,-6.71243704292,-15.6203979817,0,0,
3186,3186,1.5930000,252718,1593,18470.5566,25507.5723,-5.20995803312,-21.6655592821,0,0,
3187,3187,1.5935000,252718,1593,18467.9121,25518.8691,-8.80699838031,-17.7729028988,0,0,
3188,3188,1.5940000,252719,1594,18462.7441,25522.8379,-12.5441275152,-20.0395520022,0,0,
3189,3189,1.5945000,252719,1594,18461.6621,25525.2422,-13.5667091108,-21.1440584457,0,0,
3190,3190,1.5950000,252720,1595,18460.459,25536.2988,-13.9457669899,-14.9419999566,0,0,
3191,3191,1.5955000,252720,1595,18463.9453,25541.1094,-10.4858346875,-14.7870715479,0,0,
3192,3192,1.5960000,252721,1596,18465.6289,25547.3594,-10.0126070826,-12.4503039304,0,0,
3193,3193,1.5965000,252721,1596,18467.9121,25558.1777,-8.96866881509,-7.43280794576,0,0,
3194,3194,1.5970000,252722,1597,18466.7109,25571.0391,-9.86004901565,-4.33064214201,0,0,
3195,3195,1.5975000,252722,1597,18461.0605,25582.5781,-14.1599424897,-1.27037721303,0,0,
3196,3196,1.5980000,252723,1598,18464.3066,25582.2188,-11.2356244979,-7.57357226799,0,0,
3197,3197,1.5985000,252723,1598,18458.5371,25582.0957,-15.2105958983,-13.9056070804,0,0,
3198,3198,1.5990000,252724,1599,18461.1816,25575.7266,-10.5883790633,-19.8953980743,0,0,
3199,3199,1.5995000,252724,1599,18462.502,25576.4473,-9.5007601129,-17.9152457443,0,0,
3200,3200,1.6000000,252725,1600,18462.9844,25587.748,-8.26643013532,-9.93602028453,0,0,
3201,3201,1.6005000,252725,1600,18461.0605,25595.9219,-11.0088035705,-10.0336166639,0,0,
3202,3202,1.6010000,252726,1601,18465.1465,25599.4062,-7.82909808939,-12.3235549514,0,0,
3203,3203,1.6015000,252726,1601,18467.6719,25598.5645,-5.68902784187,-15.6508210873,0,0,
3204,3204,1.6020000,252727,1602,18464.4277,25600.248,-7.84879572963,-17.0826032374,0,0,
3205,3205,1.6025000,252727,1602,18465.1465,25604.8145,-5.20601188367,-15.3680684071,0,0,
3206,3206,1.6030000,252728,1603,18469.3535,25604.9355,-0.489901614697,-16.9338710865,0,0,
3207,3207,1.6035000,252728,1603,18473.8027,25602.4121,1.74549409149,-18.4142491517,0,0,
3208,3208,1.6040000,252729,1604,18469.7148,25602.1719,-4.55339805928,-16.2615842711,0,0,
3209,3209,1.6045000,252729,1604,18471.6387,25607.0996,-3.89731648356,-10.9378207598,0,0,
3210,3210,1.6050000,252730,1605,18472.3594,25610.5859,-5.46676485044,-5.3140560746,0,0,
3211,3211,1.6055000,252730,1605,18474.6426,25616.9551,-4.95415032885,0.397365575071,0,0,
3212,3212,1.6060000,252731,1606,18467.4316,25623.8066,-10.1996125318,4.5182788524,0,0,
3213,3213,1.6065000,252731,1606,18464.9082,25636.3105,-10.1658405921,10.8099549114,0,0,
3214,3214,1.6070000,252732,1607,18457.2148,25653.6172,-15.3487412027,21.008681903,0,0,
3215,3215,1.6075000,252732,1607,18456.1328,25663.2344,-13.6376358125,25.7480978889,0,0,
3216,3216,1.6080000,252733,1608,18462.9844,25659.3887,-5.37293014665,16.3612467243,0,0,
3217,3217,1.6085000,252733,1608,18473.9219,25651.8145,6.16954057176,3.19005672898,0,0,
3218,3218,1.6090000,252734,1609,18476.4473,25651.0938,9.26860211718,-1.22750043586,0,0,
3219,3219,1.6095000,252734,1609,18478.3691,25649.4121,9.76894276972,-2.13054246022,0,0,
3220,3220,1.6100000,252735,1610,18478.1309,25653.2578,8.72332308969,3.07532675059,0,0,
3221,3221,1.6105000,252735,1610,18475.0039,25661.9121,4.09872898749,10.0809730702,0,0,
3222,3222,1.6110000,252736,1611,18475.9668,25671.4082,4.19053263789,15.6095089867,0,0,
3223,3223,1.6115000,252736,1611,18479.2109,25682.5859,5.19664327918,21.6979909721,0,0,
3224,3224,1.6120000,252737,1612,18484.0195,25700.6172,6.25338822628,32.0114481694,0,0,
3225,3225,1.6125000,252737,1612,18486.1836,25705.7871,4.2141533277,30.8489548624,0,0,
3226,3226,1.6130000,252738,1613,18482.3379,25706.748,-1.866965926,24.9028555343,0,0,
3227,3227,1.6135000,252738,1613,18482.8184,25695.0879,-0.745069887207,6.18554906993,0,0,
3228,3228,1.6140000,252739,1614,18480.0527,25684.1484,-1.02070983579,-6.72326560289,0,0,
3229,3229,1.6145000,252739,1614,18481.4941,25684.1484,0.452039839573,-6.2819098733,0,0,
3230,3230,1.6150000,252740,1615,18484.8613,25691.3613,3.60372903083,-1.29123735099,0,0,
3231,3231,1.6155000,252740,1615,18483.5391,25700.377,1.46892891056,5.5063915193,0,0,
3232,3232,1.6160000,252741,1616,18486.9043,25705.1855,3.12434503759,8.18666889836,0,0,
3233,3233,1.6165000,252741,1616,18493.7559,25698.5723,7.25686690022,-0.0607729405954,0,0,
3234,3234,1.6170000,252742,1617,18497.2422,25697.6113,9.16746341025,-4.29566443011,0,0,
3235,3235,1.6175000,252742,1617,18497.002,25705.4238,8.23297260727,1.25944853039,0,0,
3236,3236,1.6180000,252743,1618,18494.5977,25715.5234,3.38327830891,10.4953943549,0,0,
3237,3237,1.6185000,252743,1618,18494.8379,25720.2109,3.70259342805,12.3829917857,0,0,
3238,3238,1.6190000,252744,1619,18497.7227,25719.4902,5.3107205102,13.7101087833,0,0,
3239,3239,1.6195000,252744,1619,18497.2422,25717.5645,2.67270815111,13.1988447039,0,0,
3240,3240,1.6200000,252745,1620,18498.3242,25710.1113,2.63623452838,4.60882987408,0,0,
3241,3241,1.6205000,252745,1620,18500.0059,25708.1895,1.93099215371,-0.505928022727,0,0,
3242,3242,1.6210000,252746,1621,18500.248,25697.373,-0.514800935395,-9.66208252968,0,0,
3243,3243,1.6215000,252746,1621,18503.6113,25690.2793,0.887574086079,-11.4693700138,0,0,
3244,3244,1.6220000,252747,1622,18504.9355,25697.1309,1.86087804063,-2.49895662634,0,0,
3245,3245,1.6225000,252747,1622,18505.8965,25703.2598,2.50998786739,4.10950679965,0,0,
3246,3246,1.6230000,252748,1623,18506.8574,25708.9121,2.17301473259,10.165113132,0,0,
3247,3247,1.6235000,252748,1623,18505.7754,25716.123,-1.20624045386,17.9475037012,0,0,
3248,3248,1.6240000,252749,1624,18506.0176,25720.6895,-2.34661941187,22.3714255946,0,0,
3249,3249,1.6245000,252749,1624,18508.3008,25720.4512,-1.91019065427,20.1252254568,0,0,
3250,3250,1.6250000,252750,1625,18510.584,25721.7734,-2.26001660886,21.2599705223,0,0,
3251,3251,1.6255000,252750,1625,18512.748,25719.7285,-2.50467286924,17.5674899384,0,0,
3252,3252,1.6260000,252751,1626,18512.627,25719.9688,-1.40999966599,15.2919372666,0,0,
3253,3253,1.6265000,252751,1626,18513.8301,25723.4551,0.0159859735927,13.5991684005,0,0,
3254,3254,1.6270000,252752,1627,18518.0371,25729.8262,3.42641121959,14.60827302,0,0,
3255,3255,1.6275000,252752,1627,18518.7578,25727.4219,2.36664625382,11.7534552124,0,0,
3256,3256,1.6280000,252753,1628,18522.3652,25727.4219,2.61444358039,11.8272822722,0,0,
3257,3257,1.6285000,252753,1628,18525.248,25722.9746,2.63828796723,6.7600590761,0,0,
3258,3258,1.6290000,252754,1629,18522.4844,25724.5371,-0.0450101969753,6.71475168586,0,0,
3259,3259,1.6295000,252754,1629,18522.9648,25736.1973,-0.586827241127,17.3872712424,0,0,
3260,3260,1.6300000,252755,1630,18522.9648,25744.8516,-0.691949360015,23.2376970367,0,0,
3261,3261,1.6305000,252755,1630,18521.2832,25754.9473,-2.69208291877,26.8128807398,0,0,
3262,3262,1.6310000,252756,1631,18522.3652,25757.834,-2.24039556135,22.4573322349,0,0,
3263,3263,1.6315000,252756,1631,18526.3301,25748.3379,-0.556632657518,8.42263327915,0,0,
3264,3264,1.6320000,252757,1632,18528.2539,25734.2734,-1.82633361517,-7.87882398504,0,0,
3265,3265,1.6325000,252757,1632,18529.8164,25727.541,-3.17318950224,-11.8536236865,0,0,
3266,3266,1.6330000,252758,1633,18531.9805,25723.3359,-2.3313481867,-13.1247067418,0,0,
3267,3267,1.6335000,252758,1633,18531.7402,25730.5469,-2.26982081763,-5.44213910401,0,0,
3268,3268,1.6340000,252759,1634,18532.2207,25734.3926,0.0757340571586,-0.880666629388,0,0,
3269,3269,1.6345000,252759,1634,18535.5859,25736.6777,2.22988701503,0.976862809965,0,0,
3270,3270,1.6350000,252760,1635,18533.9043,25729.4668,-0.123750379267,-7.70320670104,0,0,
3271,3271,1.6355000,252760,1635,18541.1152,25724.2969,5.26895571107,-12.4300980907,0,0,
3272,3272,1.6360000,252761,1636,18539.6738,25725.377,1.46058123727,-9.97114025793,0,0,
3273,3273,1.6365000,252761,1636,18539.6738,25731.9902,-0.997025525469,-2.57014261788,0,0,
3274,3274,1.6370000,252762,1637,18536.0684,25746.6543,-4.14044359201,6.96355525015,0,0,
3275,3275,1.6375000,252762,1637,18536.4277,25750.3809,-2.18033445092,5.33739356907,0,0,
3276,3276,1.6380000,252763,1638,18535.2246,25745.2109,-3.16396431875,-1.62749700647,0,0,
3277,3277,1.6385000,252763,1638,18533.7832,25741.0059,-2.75084324447,-6.65930349863,0,0,
3278,3278,1.6390000,252764,1639,18539.9141,25750.623,2.7981993983,4.60133557249,0,0,
3279,3279,1.6395000,252764,1639,18538.2305,25759.2754,0.639548063258,12.3436208324,0,0,
3280,3280,1.6400000,252765,1640,18537.1484,25764.6855,-0.11477984112,13.459431932,0,0,
3281,3281,1.6405000,252765,1640,18543.8809,25768.8926,4.66497275309,9.72126023278,0,0,
3282,3282,1.6410000,252766,1641,18543.1582,25769.0137,2.17247074609,5.8905468074,0,0,
3283,3283,1.6415000,252766,1641,18540.1543,25768.4121,-1.48620665175,2.85380933347,0,0,
3284,3284,1.6420000,252767,1642,18540.0332,25774.1816,-0.470240964659,1.80312656851,0,0,
3285,3285,1.6425000,252767,1642,18540.0332,25776.9453,0.747281733578,-2.02756094052,0,0,
3286,3286,1.6430000,252768,1643,18538.1113,25778.2676,-0.397797781804,-5.79230357908,0,0,
3287,3287,1.6435000,252768,1643,18539.3125,25777.4277,0.497095136577,-9.82434107692,0,0,
3288,3288,1.6440000,252769,1644,18541.5957,25775.623,2.33175109817,-13.2813021854,0,0,
3289,3289,1.6445000,252769,1644,18541.1152,25778.9902,1.01157535958,-12.5935283407,0,0,
3290,3290,1.6450000,252770,1645,18542.3184,25785.2402,0.777475931896,-8.61848693823,0,0,
3291,3291,1.6455000,252770,1645,18544.8418,25786.4434,1.80368348018,-10.4708113171,0,0,
3292,3292,1.6460000,252771,1646,18544.8418,25783.5566,3.46192301808,-16.5799650669,0,0,
3293,3293,1.6465000,252771,1646,18544.8418,25784.3984,4.13974498627,-20.9225669935,0,0,
3294,3294,1.6470000,252772,1647,18543.2793,25785.3594,2.7918422787,-24.5931178561,0,0,
3295,3295,1.6475000,252772,1647,18544.3613,25781.1543,3.68537962112,-27.2662092264,0,0,
3296,3296,1.6480000,252773,1648,18545.3223,25774.1816,2.8862027314,-31.3573663654,0,0,
3297,3297,1.6485000,252773,1648,18549.2891,25771.7754,5.15650459447,-31.0006062198,0,0,
3298,3298,1.6490000,252774,1649,18545.3223,25770.9355,2.98880928502,-30.6645321709,0,0,
3299,3299,1.6495000,252774,1649,18547.4863,25770.6953,4.85126109567,-29.0593157485,0,0,
3300,3300,1.6500000,252775,1650,18548.4473,25774.4219,5.97049157675,-23.6673435319,0,0,
3301,3301,1.6505000,252775,1650,18546.0449,25780.1895,3.89877108229,-19.043758079,0,0,
3302,3302,1.6510000,252776,1651,18546.5254,25778.9902,3.8755914185,-20.1576320225,0,0,
3303,3303,1.6515000,252776,1651,18545.8027,25782.7168,1.52505559918,-14.7641288551,0,0,
3304,3304,1.6520000,252777,1652,18544.6016,25788.8457,-1.2153250714,-8.38000601097,0,0,
3305,3305,1.6525000,252777,1652,18547.7266,25783.7969,0.107865359521,-10.8405047791,0,0,
3306,3306,1.6530000,252778,1653,18547.6074,25786.4434,-0.435835239932,-7.08570196235,0,0,
3307,3307,1.6535000,252778,1653,18547.6074,25788.3652,0.647270298718,-6.96634197322,0,0,
3308,3308,1.6540000,252779,1654,18545.2031,25790.5293,0.780662073711,-5.16455466974,0,0,
3309,3309,1.6545000,252779,1654,18545.9238,25787.7637,1.27903377544,-7.7268285997,0,0,
3310,3310,1.6550000,252780,1655,18547.6074,25791.6094,3.2736629009,-4.66734167244,0,0,
3311,3311,1.6555000,252780,1655,18546.1641,25796.2988,0.917836463091,-1.32977328244,0,0,
3312,3312,1.6560000,252781,1656,18546.0449,25803.5098,0.634782633207,3.23703615273,0,0,
3313,3313,1.6565000,252781,1656,18542.7988,25807.8379,-2.78960456901,4.29795879055,0,0,
3314,3314,1.6570000,252782,1657,18542.3184,25816.0098,-1.31213207379,4.56893208527,0,0,
3315,3315,1.6575000,252782,1657,18542.1973,25817.5723,0.48610226952,0.996686247574,0,0,
3316,3316,1.6580000,252783,1658,18542.3184,25817.8145,1.27931748346,-0.095405948156,0,0,
3317,3317,1.6585000,252783,1658,18544.4824,25815.4121,4.60099124381,-3.32486327295,0,0,
3318,3318,1.6590000,252784,1659,18545.6836,25810.9629,4.36616399484,-6.41626042848,0,0,
3319,3319,1.6595000,252784,1659,18546.0449,25810.002,4.42819164802,-5.97829427641,0,0,
3320,3320,1.6600000,252785,1660,18545.082,25808.7988,3.56424518604,-6.73783997619,0,0,
3321,3321,1.6605000,252785,1660,18543.2793,25811.084,0.040725559894,-6.64470137305,0,0,
3322,3322,1.6610000,252786,1661,18542.0762,25813.248,-1.34499790319,-3.44241771758,0,0,
3323,3323,1.6615000,252786,1661,18542.1973,25812.7656,-0.884039156982,-1.88583621679,0,0,
3324,3324,1.6620000,252787,1662,18541.4766,25812.2871,-0.448975668915,-4.2088684213,0,0,
3325,3325,1.6625000,252787,1662,18545.4434,25804.1113,3.81223216472,-11.7200566652,0,0,
3326,3326,1.6630000,252788,1663,18542.1973,25797.0176,1.12646214553,-15.6302648626,0,0,
3327,3327,1.6635000,252788,1663,18540.875,25793.1719,-0.685998819975,-14.5153941949,0,0,
3328,3328,1.6640000,252789,1664,18537.5098,25793.8926,-3.85589113893,-8.68684994878,0,0,
3329,3329,1.6645000,252789,1664,18535.1055,25803.3906,-5.61668222897,2.1598016913,0,0,
3330,3330,1.6650000,252790,1665,18537.2695,25813.7266,-4.0209256407,12.2557329781,0,0,
3331,3331,1.6655000,252790,1665,18536.3066,25822.1406,-5.35685128838,19.0291166689,0,0,
3332,3332,1.6660000,252791,1666,18538.7129,25823.1035,-0.980084007684,18.0694859147,0,0,
3333,3333,1.6665000,252791,1666,18538.2305,25824.0645,-0.327807219336,14.6279185396,0,0,
3334,3334,1.6670000,252792,1667,18540.6348,25823.3438,2.25057709474,10.131075256,0,0,
3335,3335,1.6675000,252792,1667,18543.2793,25837.0469,3.85881885557,22.3832569006,0,0,
3336,3336,1.6680000,252793,1668,18546.1641,25829.5938,4.1079250158,15.4219574945,0,0,
3337,3337,1.6685000,252793,1668,18552.5352,25806.875,6.85934272049,-3.65720638991,0,0,
3338,3338,1.6690000,252794,1669,18552.2949,25803.75,6.7756164105,-4.4719036964,0,0,
3339,3339,1.6695000,252794,1669,18550.6113,25816.252,3.25101114553,8.01336905676,0,0,
3340,3340,1.6700000,252795,1670,18546.6445,25828.3926,-0.88234091854,17.5499578334,0,0,
3341,3341,1.6705000,252795,1670,18544.4824,25836.3262,-2.43360857237,19.9923578599,0,0,
3342,3342,1.6710000,252796,1671,18544.7207,25840.1719,-2.78699832324,19.9938672482,0,0,
3343,3343,1.6715000,252796,1671,18545.5645,25840.291,-3.48597024053,17.5400768864,0,0,
3344,3344,1.6720000,252797,1672,18545.6836,25832.4785,-4.96131669707,8.49241422879,0,0,
3345,3345,1.6725000,252797,1672,18548.207,25821.2988,-4.94078059958,1.35733948399,0,0,
3346,3346,1.6730000,252798,1673,18548.6895,25811.2031,-5.26345477817,-5.14702140764,0,0,
3347,3347,1.6735000,252798,1673,18550.3711,25799.3027,-3.47255183908,-13.357300171,0,0,
3348,3348,1.6740000,252799,1674,18552.6543,25800.5059,-0.247089637067,-7.86229505477,0,0,
3349,3349,1.6745000,252799,1674,18548.5684,25813.6074,-5.10049844659,7.22110559372,0,0,
3350,3350,1.6750000,252800,1675,18545.2031,25825.8672,-7.92928501091,17.3638978325,0,0,
3351,3351,1.6755000,252800,1675,18541.1152,25832.8379,-11.3166259407,21.0407501039,0,0,
3352,3352,1.6760000,252801,1676,18545.3223,25829.9551,-6.99985811282,15.2482985722,0,0,
3353,3353,1.6765000,252801,1676,18549.6504,25818.8965,-3.39881643981,4.15037244469,0,0,
3354,3354,1.6770000,252802,1677,18551.0918,25805.0723,-1.75909845289,-10.4083723434,0,0,
3355,3355,1.6775000,252802,1677,18551.6934,25792.9316,-1.0016706989,-17.9764284337,0,0,
3356,3356,1.6780000,252803,1678,18545.3223,25799.0625,-6.78659031936,-6.27008342621,0,0,
3357,3357,1.6785000,252803,1678,18550.252,25801.4668,-1.77296088732,0.752977295146,0,0,
3358,3358,1.6790000,252804,1679,18548.9277,25798.3418,-4.28108244079,3.35860145148,0,0,
3359,3359,1.6795000,252804,1679,18546.8848,25792.3301,-5.9087769454,2.69360825593,0,0,
3360,3360,1.6800000,252805,1680,18546.1641,25791.4902,-5.67455444881,5.69397943584,0,0,
3361,3361,1.6805000,252805,1680,18549.0488,25787.2832,-4.02633361987,3.12143409147,0,0,
3362,3362,1.6810000,252806,1681,18549.4102,25782.2344,-4.0169350584,2.98238935197,0,0,
3363,3363,1.6815000,252806,1681,18551.2129,25785,-2.63157212377,10.5514434603,0,0,
3364,3364,1.6820000,252807,1682,18550.252,25786.2012,-2.99995452666,12.4511167115,0,0,
3365,3365,1.6825000,252807,1682,18553.1348,25785.8418,-0.828239158869,14.2492284684,0,0,
