record_index,sequence,time_s,tick_ms,tick_elapsed_ms,ch1_raw_uV,ch2_raw_uV,ch1_filtered_uV,ch2_filtered_uV,sequence_gap_before,byte_offset_adjustment,imputed_fields
2000,2000,1.0000000,90905,1000,19298.9922,26349.9512,2.08123401448,-6.31998396519,0,0,
2001,2001,1.0005000,90906,1001,19301.877,26358.8457,4.79291058673,1.37882241275,0,0,
2002,2002,1.0010000,90906,1001,19302.1172,26369.0625,4.13780918024,9.51438297263,0,0,
2003,2003,1.0015000,90907,1002,19304.1621,26383.7285,3.96174217157,22.0965068759,0,0,
2004,2004,1.0020000,90907,1002,19295.9863,26389.0156,-3.8046862616,23.567888998,0,0,
2005,2005,1.0025000,90908,1003,19291.0586,26386.252,-7.52318340272,17.4525075256,0,0,
2006,2006,1.0030000,90908,1003,19296.4688,26376.7559,-1.99016136108,6.61762704699,0,0,
2007,2007,1.0035000,90909,1004,19299.3535,26366.6582,1.2013444362,-0.731471012456,0,0,
2008,2008,1.0040000,90909,1004,19295.748,26365.5781,-1.2815086226,0.179438186146,0,0,
2009,2009,1.0045000,90910,1005,19294.7852,26367.7422,-1.20461082967,3.02457875714,0,0,
2010,2010,1.0050000,90910,1005,19291.1797,26378.5605,-4.52548012138,10.2728324643,0,0,
2011,2011,1.0055000,90911,1006,19294.0645,26381.4453,-1.13110223895,10.3911470335,0,0,
2012,2012,1.0060000,90911,1006,19292.502,26375.3125,-2.22665000906,2.13952240786,0,0,
2013,2013,1.0065000,90912,1007,19293.8242,26375.9141,0.91426162779,-0.486930094181,0,0,
2014,2014,1.0070000,90912,1007,19292.3809,26372.9082,0.754420719567,-6.30358557335,0,0,
2015,2015,1.0075000,90913,1008,19297.4297,26374.4707,4.79515534309,-6.7320105472,0,0,
2016,2016,1.0080000,90913,1008,19298.752,26383.7285,5.23459846393,1.07476516251,0,0,
2017,2017,1.0085000,90914,1009,19300.4355,26388.2969,4.89852100169,4.8071817044,0,0,
2018,2018,1.0090000,90914,1009,19298.873,26382.6465,1.99454181491,-0.643289157864,0,0,
2019,2019,1.0095000,90915,1010,19294.3047,26376.2754,-2.73978966463,-4.97268989199,0,0,
2020,2020,1.0100000,90915,1010,19295.1465,26373.0293,-1.06956310001,-7.45942927094,0,0,
2021,2021,1.0105000,90916,1011,19296.3477,26370.625,1.269897098,-10.2015937558,0,0,
2022,2022,1.0110000,90916,1011,19299.1133,26372.5488,2.76503944349,-7.51137114818,0,0,
2023,2023,1.0115000,90917,1012,19294.9043,26373.6309,-1.4907746727,-6.23258334387,0,0,
2024,2024,1.0120000,90917,1012,19293.7031,26377.5957,-0.923061142336,-2.15961237067,0,0,
2025,2025,1.0125000,90918,1013,19290.2168,26378.5605,-4.23465284927,-1.47125054538,0,0,
2026,2026,1.0130000,90918,1013,19294.666,26383.8496,-0.307392290721,3.90697053693,0,0,
2027,2027,1.0135000,90919,1014,19294.1855,26386.252,0.113456883806,6.35190437906,0,0,
2028,2028,1.0140000,90919,1014,19295.3867,26390.8203,2.59405580167,5.85844912431,0,0,
2029,2029,1.0145000,90920,1015,19295.1465,26395.5078,2.55446003436,4.08174133905,0,0,
2030,2030,1.0150000,90920,1015,19291.2988,26397.791,-1.0742623769,2.14023974634,0,0,
2031,2031,1.0155000,90921,1016,19294.7852,26399.5938,2.43045201844,0.823934285132,0,0,
2032,2032,1.0160000,90921,1016,19292.1406,26397.1895,-0.0639664828017,-3.23981750857,0,0,
2033,2033,1.0165000,90922,1017,19296.5879,26394.0645,3.55639395634,-7.82343171594,0,0,
2034,2034,1.0170000,90922,1017,19293.9434,26385.7715,1.04068961065,-12.9378784805,0,0,
2035,2035,1.0175000,90923,1018,19291.4199,26391.1797,-1.57135149961,-5.7441775044,0,0,
2036,2036,1.0180000,90923,1018,19288.0527,26390.2188,-3.22307848345,-4.71290331413,0,0,
2037,2037,1.0185000,90924,1019,19286.3711,26392.0215,-5.00552878518,-2.54069835393,0,0,
2038,2038,1.0190000,90924,1019,19284.8086,26390.7012,-5.75648809382,-2.26209795463,0,0,
2039,2039,1.0195000,90925,1020,19287.0918,26396.9512,-2.17802630097,1.79548918795,0,0,
2040,2040,1.0200000,90925,1020,19283.4863,26403.3203,-3.18212771969,3.19232554744,0,0,
2041,2041,1.0205000,90926,1021,19286.0098,26407.2871,0.0171692393095,-0.174235877515,0,0,
2042,2042,1.0210000,90926,1021,19289.377,26410.0527,3.23146751018,-3.53469982962,0,0,
2043,2043,1.0215000,90927,1022,19293.3418,26410.8926,5.13594733153,-6.51772452323,0,0,
2044,2044,1.0220000,90927,1022,19295.8672,26413.0566,7.63646088726,-6.8365152954,0,0,
2045,2045,1.0225000,90928,1023,19299.834,26415.3418,9.97370038254,-5.91810696931,0,0,
2046,2046,1.0230000,90928,1023,19298.1504,26417.9844,5.40363885013,-3.87245022394,0,0,
2047,2047,1.0235000,90929,1024,19296.8301,26418.1074,2.8707789277,-2.58763168888,0,0,
2048,2048,1.0240000,90929,1024,19295.5059,26419.9082,1.95336707241,-2.07996057578,0,0,
2049,2049,1.0245000,90930,1025,19297.1895,26411.1328,3.04454664027,-11.1490484081,0,0,
2050,2050,1.0250000,90930,1025,19297.791,26403.9219,2.34155467907,-19.9757514388,0,0,
2051,2051,1.0255000,90931,1026,19294.1855,26400.3145,-2.20538239459,-21.7586189278,0,0,
2052,2052,1.0260000,90931,1026,19293.7031,26391.7812,-2.85634727397,-25.8871480301,0,0,
2053,2053,1.0265000,90932,1027,19294.7852,26379.2812,-1.29616489013,-33.9831846368,0,0,
2054,2054,1.0270000,90932,1027,19295.2656,26379.8809,-0.471071309264,-29.1602837179,0,0,
2055,2055,1.0275000,90933,1028,19293.1035,26385.0488,-3.89950163472,-21.2241537333,0,0,
2056,2056,1.0280000,90933,1028,19293.584,26393.2246,-3.67331030346,-11.5874435835,0,0,
2057,2057,1.0285000,90934,1029,19292.2617,26399.5938,-5.68121136702,-3.03790556747,0,0,
2058,2058,1.0290000,90934,1029,19289.1348,26405.002,-8.0820438122,4.97763824067,0,0,
2059,2059,1.0295000,90935,1030,19289.4961,26405.002,-6.53129878763,7.85606171354,0,0,
2060,2060,1.0300000,90935,1030,19292.1406,26403.9219,-3.3868179173,7.61117447856,0,0,
2061,2061,1.0305000,90936,1031,19294.1855,26405.4844,-0.814506048953,8.26859804968,0,0,
2062,2062,1.0310000,90936,1031,19296.5879,26407.166,-0.0142705704505,9.23221773067,0,0,
2063,2063,1.0315000,90937,1032,19292.3809,26412.6973,-3.39822682465,13.0253518051,0,0,
2064,2064,1.0320000,90937,1032,19296.4688,26415.5801,1.3359449813,13.9200840762,0,0,
2065,2065,1.0325000,90938,1033,19299.3535,26410.8926,2.94605723256,8.81720418751,0,0,
2066,2066,1.0330000,90938,1033,19299.2324,26409.8125,0.510886407388,8.00719085615,0,0,
2067,2067,1.0335000,90939,1034,19300.7949,26413.2969,1.6483617137,11.9989003193,0,0,
2068,2068,1.0340000,90939,1034,19302.1172,26420.9902,2.64867483197,14.993829157,0,0,
2069,2069,1.0345000,90940,1035,19298.873,26426.2793,-0.734123303151,14.2966829138,0,0,
2070,2070,1.0350000,90940,1035,19299.7129,26432.4082,-0.104871894248,15.9447953743,0,0,
2071,2071,1.0355000,90941,1036,19298.1504,26428.4434,-2.3823106601,9.65523342807,0,0,
2072,2072,1.0360000,90941,1036,19300.0742,26422.9141,-0.643012198034,4.37094689763,0,0,
2073,2073,1.0365000,90942,1037,19302.8379,26418.2266,0.176594519544,0.410952920752,0,0,
2074,2074,1.0370000,90942,1037,19303.5605,26414.9824,0.607676822283,1.49592515558,0,0,
2075,2075,1.0375000,90943,1038,19308.127,26410.5332,3.45469333277,-0.665628122327,0,0,
2076,2076,1.0380000,90943,1038,19309.0898,26419.4277,3.74194884755,9.82109516641,0,0,
2077,2077,1.0385000,90944,1039,19308.9688,26437.8203,1.20270951141,24.6642010405,0,0,
2078,2078,1.0390000,90944,1039,19305.3633,26451.8828,-3.36065721759,34.0768580324,0,0,
2079,2079,1.0395000,90945,1040,19308.6074,26454.5254,-1.3679468913,28.7918758414,0,0,
2080,2080,1.0400000,90945,1040,19303.5605,26448.5176,-4.85763968744,15.5271212306,0,0,
2081,2081,1.0405000,90946,1041,19302.4785,26434.8145,-6.22858192597,-3.1606886539,0,0,
2082,2082,1.0410000,90946,1041,19300.3145,26418.4668,-8.29231792679,-19.7197219449,0,0,
2083,2083,1.0415000,90947,1042,19305.4824,26410.6543,-4.88306962478,-24.3750105506,0,0,
2084,2084,1.0420000,90947,1042,19306.9258,26411.4941,-3.0495480847,-20.0278132737,0,0,
2085,2085,1.0425000,90948,1043,19307.5273,26415.7012,-2.97486181499,-12.5200004828,0,0,
2086,2086,1.0430000,90948,1043,19310.291,26409.2109,-1.52521073161,-14.0010923484,0,0,
2087,2087,1.0435000,90949,1044,19315.3398,26410.6543,2.23173286893,-6.63416365247,0,0,
2088,2088,1.0440000,90949,1044,19318.4648,26415.4609,4.61613570351,0.53676037264,0,0,
2089,2089,1.0445000,90950,1045,19314.1387,26423.7559,-0.47744767398,10.2543984979,0,0,
2090,2090,1.0450000,90950,1045,19306.4453,26428.8047,-7.58396260359,12.7712363039,0,0,
2091,2091,1.0455000,90951,1046,19306.8066,26429.6465,-6.35813644867,12.3017138806,0,0,
2092,2092,1.0460000,90951,1046,19313.6582,26420.1484,-0.126661498862,4.92982349058,0,0,
2093,2093,1.0465000,90952,1047,19314.7402,26406.3262,0.642776550543,-5.5277694877,0,0,
2094,2094,1.0470000,90952,1047,19313.8965,26403.9219,-0.128195585493,-6.66252206591,0,0,
2095,2095,1.0475000,90953,1048,19312.4551,26415.7012,-2.30692888265,3.0806178785,0,0,
2096,2096,1.0480000,90953,1048,19314.2578,26433.252,-1.15911476111,15.3098407775,0,0,
2097,2097,1.0485000,90954,1049,19313.8965,26443.8281,-2.24662916495,21.0645200699,0,0,
2098,2098,1.0490000,90954,1049,19314.7402,26443.2285,-1.31104227936,17.8038607027,0,0,
2099,2099,1.0495000,90955,1050,19316.1816,26432.7715,-0.165814628182,8.36273581503,0,0,
2100,2100,1.0500000,90955,1050,19317.0234,26420.6309,-0.10680042887,-1.92004477352,0,0,
2101,2101,1.0505000,90956,1051,19320.2676,26416.0625,2.39167533313,-5.49943636954,0,0,
2102,2102,1.0510000,90956,1051,19320.748,26420.3906,0.867331265586,-0.834803806027,0,0,
2103,2103,1.0515000,90957,1052,19317.1426,26412.2168,-1.49625403239,-7.79411558066,0,0,
2104,2104,1.0520000,90957,1052,19315.0996,26404.4043,-2.85413664369,-12.4028401052,0,0,
2105,2105,1.0525000,90958,1053,19308.9688,26408.9707,-7.86933513956,-4.2695712801,0,0,
2106,2106,1.0530000,90958,1053,19308.6074,26410.1719,-7.51013199443,-0.557083482092,0,0,
2107,2107,1.0535000,90959,1054,19312.0957,26403.6816,-2.75295426227,-3.66136429936,0,0,
2108,2108,1.0540000,90959,1054,19315.3398,26399.1152,1.32959235373,-7.93941617229,0,0,
2109,2109,1.0545000,90960,1055,19320.748,26389.498,6.82920030628,-15.5905338121,0,0,
2110,2110,1.0550000,90960,1055,19320.2676,26382.5254,5.84361199397,-17.959843036,0,0,
2111,2111,1.0555000,90961,1056,19315.0996,26382.5254,0.982256398127,-11.4968922169,0,0,
2112,2112,1.0560000,90961,1056,19313.5371,26382.8848,0.0604590076786,-4.45767062789,0,0,
2113,2113,1.0565000,90962,1057,19308.8496,26385.1699,-4.23131305334,2.55892847822,0,0,
2114,2114,1.0570000,90962,1057,19302.3574,26389.9785,-7.45690898203,12.5088657763,0,0,
2115,2115,1.0575000,90963,1058,19304.6426,26396.8301,-3.78245663687,20.5473145195,0,0,
2116,2116,1.0580000,90963,1058,19306.4453,26400.6777,0.383333378261,23.1838910722,0,0,
2117,2117,1.0585000,90964,1059,19307.2871,26400.916,1.84782283916,19.5583312555,0,0,
2118,2118,1.0590000,90964,1059,19305.002,26395.8672,1.46059086674,13.8897294039,0,0,
2119,2119,1.0595000,90965,1060,19302.3574,26394.3047,-0.0598873871569,11.4146754842,0,0,
2120,2120,1.0600000,90965,1060,19302.4785,26381.4453,3.72597362025,0.406476917731,0,0,
2121,2121,1.0605000,90966,1061,19302.2383,26378.6797,4.44668597254,-0.196653279641,0,0,
2122,2122,1.0610000,90966,1061,19300.6758,26374.1113,4.04196413728,-1.21587224535,0,0,
2123,2123,1.0615000,90967,1062,19300.916,26371.9473,3.2385270849,-0.345114852297,0,0,
2124,2124,1.0620000,90967,1062,19301.6367,26375.9141,5.26412729214,4.37580513655,0,0,
2125,2125,1.0625000,90968,1063,19297.3105,26372.9082,2.38418288799,2.59578643125,0,0,
2126,2126,1.0630000,90968,1063,19298.2715,26376.3965,3.73967238572,8.71473958199,0,0,
2127,2127,1.0635000,90969,1064,19301.998,26385.1699,7.32038093453,17.8154646051,0,0,
2128,2128,1.0640000,90969,1064,19300.916,26393.584,7.39687244556,22.5245089691,0,0,
2129,2129,1.0645000,90970,1065,19301.2754,26398.1504,9.10059312688,22.9259275012,0,0,
2130,2130,1.0650000,90970,1065,19301.998,26400.4355,11.0083715849,19.3068907609,0,0,
2131,2131,1.0655000,90971,1066,19302.5996,26402.2402,11.2356369178,16.9988093329,0,0,
2132,2132,1.0660000,90971,1066,19301.998,26391.1797,9.14839723779,7.14512038673,0,0,
2133,2133,1.0665000,90972,1067,19298.2715,26386.252,6.10778982752,3.69940893791,0,0,
2134,2134,1.0670000,90972,1067,19296.4688,26383.6074,5.60610823386,-1.10229223807,0,0,
2135,2135,1.0675000,90973,1068,19295.748,26382.6465,5.25238896997,-6.9504674914,0,0,
2136,2136,1.0680000,90973,1068,19296.2285,26378.1973,5.52886708366,-15.7313552111,0,0,
2137,2137,1.0685000,90974,1069,19299.2324,26381.5645,7.82570733497,-13.8438012407,0,0,
2138,2138,1.0690000,90974,1069,19294.7852,26373.3906,3.9634723528,-18.5289561607,0,0,
2139,2139,1.0695000,90975,1070,19298.5117,26367.6191,7.17573553253,-17.4081459852,0,0,
2140,2140,1.0700000,90975,1070,19303.9199,26364.7363,10.7518546676,-14.6805035062,0,0,
2141,2141,1.0705000,90976,1071,19301.3965,26369.1816,7.00903555327,-8.88220729277,0,0,
2142,2142,1.0710000,90976,1071,19295.2656,26373.1504,0.368265509678,-5.87283015441,0,0,
2143,2143,1.0715000,90977,1072,19298.6309,26379.8809,5.02303210919,0.217039274315,0,0,
2144,2144,1.0720000,90977,1072,19300.7949,26385.1699,6.7859972062,4.09051600512,0,0,
2145,2145,1.0725000,90978,1073,19298.9922,26387.8145,4.91517326887,3.99039571486,0,0,
2146,2146,1.0730000,90978,1073,19301.7559,26392.502,5.60642497185,5.59021520598,0,0,
2147,2147,1.0735000,90979,1074,19300.6758,26395.627,3.16172247582,6.54672805633,0,0,
2148,2148,1.0740000,90979,1074,19298.1504,26393.9453,0.185098215589,-0.0364728743369,0,0,
2149,2149,1.0745000,90980,1075,19300.4355,26396.2285,1.5578328435,-1.89486186053,0,0,
2150,2150,1.0750000,90980,1075,19296.2285,26395.9902,-2.19861201465,-5.12815467213,0,0,
2151,2151,1.0755000,90981,1076,19294.4238,26393.4629,-2.75938698761,-9.11362990384,0,0,
2152,2152,1.0760000,90981,1076,19296.4688,26392.3828,-0.721420694816,-10.3899190451,0,0,
2153,2153,1.0765000,90982,1077,19297.4297,26391.1797,-0.41560963848,-12.2640110108,0,0,
2154,2154,1.0770000,90982,1077,19292.6211,26389.7363,-3.42402112837,-12.6858616384,0,0,
2155,2155,1.0775000,90983,1078,19292.7422,26393.2246,-4.19798788914,-10.5970955466,0,0,
2156,2156,1.0780000,90983,1078,19293.4629,26391.1797,-3.16260848777,-13.812826729,0,0,
2157,2157,1.0785000,90984,1079,19295.8672,26393.3438,-1.83801251362,-14.3456785218,0,0,
2158,2158,1.0790000,90984,1079,19292.9824,26392.1426,-3.90562853527,-15.1043789848,0,0,
2159,2159,1.0795000,90985,1080,19295.9863,26393.1035,-1.61487988016,-14.8571993049,0,0,
2160,2160,1.0800000,90985,1080,19293.3418,26396.5879,-2.75766218797,-10.4611768714,0,0,
2161,2161,1.0805000,90986,1081,19295.1465,26395.0254,-1.76477606675,-12.5670930546,0,0,
2162,2162,1.0810000,90986,1081,19296.709,26389.377,-1.00582207735,-16.487368344,0,0,
2163,2163,1.0815000,90987,1082,19296.2285,26381.5645,-4.02490814251,-21.8515481202,0,0,
2164,2164,1.0820000,90987,1082,19297.9102,26375.1934,-3.07742272555,-26.463823913,0,0,
2165,2165,1.0825000,90988,1083,19298.3926,26374.4707,-2.89811710672,-23.9566264266,0,0,
2166,2166,1.0830000,90988,1083,19296.2285,26374.7129,-6.36684485272,-19.9355995014,0,0,
2167,2167,1.0835000,90989,1084,19294.666,26382.5254,-8.96443651788,-11.0260941429,0,0,
2168,2168,1.0840000,90989,1084,19296.2285,26383.8496,-6.82141640957,-10.3539537295,0,0,
2169,2169,1.0845000,90990,1085,19294.9043,26380.4824,-7.23642826678,-12.5540357699,0,0,
2170,2170,1.0850000,90990,1085,19293.7031,26381.084,-7.24619902768,-11.6892024206,0,0,
2171,2171,1.0855000,90991,1086,19300.5547,26378.3184,-1.57823867465,-12.1261609282,0,0,
2172,2172,1.0860000,90991,1086,19292.9824,26380.9629,-9.44083115541,-3.39412819281,0,0,
2173,2173,1.0865000,90992,1087,19295.748,26380.002,-5.83134724697,-0.229879322089,0,0,
2174,2174,1.0870000,90992,1087,19294.4238,26383.6074,-6.16388707496,2.85967808248,0,0,
2175,2175,1.0875000,90993,1088,19296.709,26382.8848,-4.28644476036,-0.882578684121,0,0,
2176,2176,1.0880000,90993,1088,19297.1895,26381.8047,-4.71651345978,-4.426885796,0,0,
2177,2177,1.0885000,90994,1089,19296.2285,26382.2871,-6.54537604209,-5.06450904314,0,0,
2178,2178,1.0890000,90994,1089,19290.6973,26387.334,-10.0899729716,2.63436768729,0,0,
2179,2179,1.0895000,90995,1090,19292.3809,26388.416,-8.50887223477,7.52589667249,0,0,
2180,2180,1.0900000,90995,1090,19294.7852,26390.2188,-7.00498730338,11.0120860116,0,0,
2181,2181,1.0905000,90996,1091,19293.1035,26388.0547,-7.7004773171,7.39611148095,0,0,
2182,2182,1.0910000,90996,1091,19296.2285,26386.0137,-4.13848535061,3.63038787244,0,0,
2183,2183,1.0915000,90997,1092,19300.0742,26380.7246,-0.324293993787,-1.20801624266,0,0,
2184,2184,1.0920000,90997,1092,19297.0684,26382.2871,-3.31087696997,1.09068857804,0,0,
2185,2185,1.0925000,90998,1093,19295.5059,26385.4121,-3.79593611689,4.12981381513,0,0,
2186,2186,1.0930000,90998,1093,19293.8242,26386.6113,-6.04017453947,5.03006073291,0,0,
2187,2187,1.0935000,90999,1094,19298.2715,26383.8496,-1.95577158183,3.90255908382,0,0,
2188,2188,1.0940000,90999,1094,19299.9551,26379.8809,-0.404463783415,0.446209280387,0,0,
2189,2189,1.0945000,91000,1095,19298.3926,26383.8496,-2.58650650402,3.98333567411,0,0,
2190,2190,1.0950000,91000,1095,19292.7422,26383.3672,-6.13247858899,4.18358847561,0,0,
2191,2191,1.0955000,91001,1096,19295.1465,26395.0254,-2.31246042142,15.1029085159,0,0,
2192,2192,1.0960000,91001,1096,19295.2656,26409.0918,-2.11734289978,26.1291783527,0,0,
2193,2193,1.0965000,91002,1097,19296.9492,26414.3809,-0.766962130192,27.0135773276,0,0,
2194,2194,1.0970000,91002,1097,19295.8672,26414.3809,0.253869090373,24.1020028999,0,0,
2195,2195,1.0975000,91003,1098,19292.1406,26411.375,-3.67446082475,16.902636757,0,0,
2196,2196,1.0980000,91003,1098,19296.2285,26404.4043,0.411688119194,8.24261855499,0,0,
2197,2197,1.0985000,91004,1099,19297.3105,26402.1191,0.366265840978,3.16823479915,0,0,
2198,2198,1.0990000,91004,1099,19298.3926,26400.0762,2.17652761465,1.68710102545,0,0,
2199,2199,1.0995000,91005,1100,19299.1133,26395.5078,1.75678996254,-2.62887563379,0,0,
2200,2200,1.1000000,91005,1100,19302.7188,26389.6172,5.97519230439,-5.79696222973,0,0,
2201,2201,1.1005000,91006,1101,19305.9629,26386.4922,6.96602013101,-6.34104002326,0,0,
2202,2202,1.1010000,91006,1101,19304.5215,26385.0488,4.09810047009,-3.72622129662,0,0,
2203,2203,1.1015000,91007,1102,19302.7188,26385.0488,0.274976345872,-0.42237100725,0,0,
2204,2204,1.1020000,91007,1102,19301.998,26385.5312,-0.934079659047,1.10921256603,0,0,
2205,2205,1.1025000,91008,1103,19301.3965,26388.6562,-1.21338001198,4.62145434676,0,0,
2206,2206,1.1030000,91008,1103,19297.0684,26396.9512,-5.07248903188,12.1221462733,0,0,
2207,2207,1.1035000,91009,1104,19298.6309,26401.0371,-3.62463017475,12.7589815624,0,0,
2208,2208,1.1040000,91009,1104,19298.6309,26402.5996,-2.79635247475,10.9766431283,0,0,
2209,2209,1.1045000,91010,1105,19297.6699,26397.6719,-2.18738162449,5.61503885222,0,0,
2210,2210,1.1050000,91010,1105,19300.1934,26395.5078,1.34314374245,2.18309444905,0,0,
2211,2211,1.1055000,91011,1106,19297.1895,26386.8535,-2.23143794274,-4.16985770174,0,0,
2212,2212,1.1060000,91011,1106,19300.1934,26384.0879,1.64002202771,-1.72759023982,0,0,
2213,2213,1.1065000,91012,1107,19298.1504,26386.8535,0.233518300746,4.54832258305,0,0,
2214,2214,1.1070000,91012,1107,19295.627,26392.3828,-0.509979568805,8.51436870008,0,0,
2215,2215,1.1075000,91013,1108,19293.7031,26393.7051,-1.75742716294,6.74091339572,0,0,
2216,2216,1.1080000,91013,1108,19292.6211,26395.5078,-2.04422691197,5.41923348926,0,0,
2217,2217,1.1085000,91014,1109,19295.5059,26396.9512,1.03117327928,4.3774022189,0,0,
2218,2218,1.1090000,91014,1109,19295.627,26394.666,3.34419226299,3.20076023315,0,0,
2219,2219,1.1095000,91015,1110,19296.709,26396.4688,3.61710892406,7.65148185078,0,0,
2220,2220,1.1100000,91015,1110,19296.3477,26404.1621,2.21525728343,14.961560569,0,0,
2221,2221,1.1105000,91016,1111,19293.2227,26405.7246,0.621972642779,13.8040178446,0,0,
2222,2222,1.1110000,91016,1111,19297.6699,26396.2285,4.84910280594,2.95089786214,0,0,
2223,2223,1.1115000,91017,1112,19300.0742,26393.2246,6.74639659091,0.542979847725,0,0,
2224,2224,1.1120000,91017,1112,19296.1074,26392.7422,3.8283630217,-0.0783540236806,0,0,
2225,2225,1.1125000,91018,1113,19298.9922,26393.3438,7.35369372237,-0.0955662126465,0,0,
2226,2226,1.1130000,91018,1113,19300.3145,26398.3926,7.45135826587,3.758605337,0,0,
2227,2227,1.1135000,91019,1114,19297.9102,26399.5938,4.13117426796,5.36593972677,0,0,
2228,2228,1.1140000,91019,1114,19297.9102,26400.916,4.22496039692,5.5241833784,0,0,
2229,2229,1.1145000,91020,1115,19296.2285,26404.7637,2.83121575615,6.06871397857,0,0,
2230,2230,1.1150000,91020,1115,19297.5488,26406.8066,5.98039807017,6.31420126423,0,0,
2231,2231,1.1155000,91021,1116,19298.9922,26404.2812,7.28597192227,1.38539867656,0,0,
2232,2232,1.1160000,91021,1116,19299.3535,26398.3926,6.89153900221,-5.38265347223,0,0,
2233,2233,1.1165000,91022,1117,19302.7188,26385.5312,8.55845385179,-15.3205688368,0,0,
2234,2234,1.1170000,91022,1117,19297.791,26379.8809,5.24780972801,-15.4669341103,0,0,
2235,2235,1.1175000,91023,1118,19296.2285,26388.6562,3.57355261626,-4.76014701252,0,0,
2236,2236,1.1180000,91023,1118,19297.0684,26398.3926,3.52300774575,5.86350087072,0,0,
2237,2237,1.1185000,91024,1119,19297.791,26400.0762,3.10825134291,5.62261525132,0,0,
2238,2238,1.1190000,91024,1119,19297.791,26397.1895,3.61508952648,3.5073733826,0,0,
2239,2239,1.1195000,91025,1120,19296.709,26388.1738,1.91766160485,-3.68445815035,0,0,
2240,2240,1.1200000,91025,1120,19300.5547,26390.0996,5.81570150782,0.616404474091,0,0,
2241,2241,1.1205000,91026,1121,19298.9922,26392.2637,2.95435395029,3.44696687602,0,0,
2242,2242,1.1210000,91026,1121,19302.2383,26389.498,5.43575058118,2.55717897689,0,0,
2243,2243,1.1215000,91027,1122,19301.998,26386.7324,3.65707388235,1.41110825538,0,0,
2244,2244,1.1220000,91027,1122,19298.1504,26389.1387,-0.147537500456,3.21213066637,0,0,
2245,2245,1.1225000,91028,1123,19300.0742,26389.0156,1.86716290876,2.12953506188,0,0,
2246,2246,1.1230000,91028,1123,19300.1934,26386.1328,2.0591427974,-1.50975773833,0,0,
2247,2247,1.1235000,91029,1124,19300.3145,26387.6953,0.931553188746,-1.66107545335,0,0,
2248,2248,1.1240000,91029,1124,19302.5996,26393.3438,2.63347518738,1.83216723238,0,0,
2249,2249,1.1245000,91030,1125,19302.8379,26403.8027,2.92412920511,10.6304138072,0,0,
2250,2250,1.1250000,91030,1125,19302.2383,26406.6875,1.93262259073,9.81175025611,0,0,
2251,2251,1.1255000,91031,1126,19300.1934,26416.4219,-0.774922549535,16.7046439039,0,0,
2252,2252,1.1260000,91031,1126,19300.3145,26421.4707,-0.780780679234,19.1266045109,0,0,
2253,2253,1.1265000,91032,1127,19299.4727,26419.6699,-1.13665988239,13.8755077536,0,0,
2254,2254,1.1270000,91032,1127,19298.1504,26415.7012,-1.17815668777,4.34815144124,0,0,
2255,2255,1.1275000,91033,1128,19293.9434,26419.6699,-4.61330458623,2.29185920245,0,0,
2256,2256,1.1280000,91033,1128,19293.9434,26419.3066,-4.12683224527,-3.37504196314,0,0,
2257,2257,1.1285000,91034,1129,19294.3047,26426.5215,-4.05602212001,-1.65408050953,0,0,
2258,2258,1.1290000,91034,1129,19293.1035,26424.2363,-3.15726977962,-5.37561286066,0,0,
2259,2259,1.1295000,91035,1130,19294.1855,26419.9082,-2.60973267307,-9.14077668937,0,0,
2260,2260,1.1300000,91035,1130,19297.5488,26418.9473,-0.443587385915,-11.2006227731,0,0,
2261,2261,1.1305000,91036,1131,19298.5117,26420.0293,1.16583580028,-11.6615675215,0,0,
2262,2262,1.1310000,91036,1131,19295.3867,26425.0781,-2.66294385609,-7.60968133333,0,0,
2263,2263,1.1315000,91037,1132,19291.4199,26419.7891,-5.93395591931,-12.9096973122,0,0,
2264,2264,1.1320000,91037,1132,19296.5879,26410.7734,0.525674911798,-21.1073560778,0,0,
2265,2265,1.1325000,91038,1133,19299.3535,26410.0527,2.8991525301,-21.2804358411,0,0,
2266,2266,1.1330000,91038,1133,19295.8672,26409.8125,-1.17783223014,-21.280285283,0,0,
2267,2267,1.1335000,91039,1134,19295.5059,26412.0957,-1.58567904422,-16.9903261406,0,0,
2268,2268,1.1340000,91039,1134,19296.4688,26416.6641,-0.570656387058,-12.390842266,0,0,
2269,2269,1.1345000,91040,1135,19295.2656,26414.5,-1.31815049483,-15.5735050423,0,0,
2270,2270,1.1350000,91040,1135,19295.627,26414.9824,0.310078531833,-14.357933136,0,0,
2271,2271,1.1355000,91041,1136,19293.4629,26420.9902,-1.47934422918,-8.98489643391,0,0,
2272,2272,1.1360000,91041,1136,19291.541,26423.6348,-2.92656368439,-6.726576856,0,0,
2273,2273,1.1365000,91042,1137,19292.8613,26425.5566,-2.21339575572,-3.43999898585,0,0,
2274,2274,1.1370000,91042,1137,19295.5059,26426.6406,2.52887407274,-1.26079655473,0,0,
2275,2275,1.1375000,91043,1138,19290.8184,26419.6699,-1.51030581732,-9.27660215563,0,0,
2276,2276,1.1380000,91043,1138,19292.2617,26412.0957,-0.690204082622,-15.3061608842,0,0,
2277,2277,1.1385000,91044,1139,19292.0215,26406.4453,-1.57037787933,-18.7111767611,0,0,
2278,2278,1.1390000,91044,1139,19292.6211,26409.6934,-0.317333545226,-11.6353467165,0,0,
2279,2279,1.1395000,91045,1140,19295.1465,26416.1816,1.4549839533,-2.43235305592,0,0,
2280,2280,1.1400000,91045,1140,19294.4238,26420.3906,0.438177378416,2.3847747326,0,0,
2281,2281,1.1405000,91046,1141,19293.7031,26424.3574,-0.752397653157,5.38623680512,0,0,
2282,2282,1.1410000,91046,1141,19294.5449,26422.3125,-0.495733809669,4.410717956,0,0,
2283,2283,1.1415000,91047,1142,19295.748,26422.3125,-0.131740889487,4.93946293517,0,0,
2284,2284,1.1420000,91047,1142,19294.4238,26418.3457,-0.830546165984,0.154878021834,0,0,
2285,2285,1.1425000,91048,1143,19292.7422,26423.9941,-2.3082642852,4.19075590515,0,0,
2286,2286,1.1430000,91048,1143,19292.2617,26428.3223,-2.16293198371,6.41003579746,0,0,
2287,2287,1.1435000,91049,1144,19291.6602,26432.5312,-3.11113858483,6.63679579819,0,0,
2288,2288,1.1440000,91049,1144,19292.0215,26424.5957,-2.70437080878,-3.47133540193,0,0,
2289,2289,1.1445000,91050,1145,19290.459,26424.2363,-3.0488876193,-4.42399954447,0,0,
2290,2290,1.1450000,91050,1145,19295.627,26417.3848,1.89805425095,-10.228431694,0,0,
2291,2291,1.1455000,91051,1146,19295.3867,26418.8281,1.1514274386,-7.21146825291,0,0,
2292,2292,1.1460000,91051,1146,19300.916,26426.8809,5.1354228422,2.42503444948,0,0,
2293,2293,1.1465000,91052,1147,19297.6699,26429.8848,1.63511644945,6.36368488905,0,0,
2294,2294,1.1470000,91052,1147,19298.9922,26423.0332,3.00914926207,-0.558649058568,0,0,
2295,2295,1.1475000,91053,1148,19297.9102,26411.6152,1.68680161922,-11.4013426159,0,0,
2296,2296,1.1480000,91053,1148,19293.7031,26407.2871,-2.83771961584,-13.5630401129,0,0,
2297,2297,1.1485000,91054,1149,19293.4629,26408.25,-3.8703068054,-11.6117615358,0,0,
2298,2298,1.1490000,91054,1149,19294.7852,26414.5,-1.53570919902,-1.64706221096,0,0,
2299,2299,1.1495000,91055,1150,19295.2656,26420.75,-2.37039122443,7.69210330344,0,0,
2300,2300,1.1500000,91055,1150,19291.6602,26432.6504,-6.82335607071,17.8473949169,0,0,
2301,2301,1.1505000,91056,1151,19292.8613,26437.459,-4.59930490351,19.3832853976,0,0,
2302,2302,1.1510000,91056,1151,19289.0156,26447.7969,-7.56500857218,25.1052742237,0,0,
2303,2303,1.1515000,91057,1152,19288.6543,26457.4121,-6.51906754647,30.2624899856,0,0,
2304,2304,1.1520000,91057,1152,19289.1348,26462.0996,-5.09242742165,29.6931942351,0,0,
2305,2305,1.1525000,91058,1153,19287.5723,26460.7793,-5.78411025556,22.0325242785,0,0,
2306,2306,1.1530000,91058,1153,19287.5723,26460.416,-4.63041093605,15.6801848322,0,0,
2307,2307,1.1535000,91059,1154,19289.2559,26451.4004,-2.48259761075,4.39089340472,0,0,
2308,2308,1.1540000,91059,1154,19288.6543,26429.8848,-2.54240158866,-15.9881257933,0,0,
2309,2309,1.1545000,91060,1155,19286.252,26411.2559,-3.4662233448,-29.9107547353,0,0,
2310,2310,1.1550000,91060,1155,19285.5293,26393.3438,-2.25497203899,-39.1996287613,0,0,
2311,2311,1.1555000,91061,1156,19283.4863,26388.416,-2.68111451653,-36.4547037891,0,0,
2312,2312,1.1560000,91061,1156,19281.8027,26396.7109,-2.8561003048,-21.7484373947,0,0,
2313,2313,1.1565000,91062,1157,19283.127,26405.8457,-1.62796714354,-6.94696542869,0,0,
2314,2314,1.1570000,91062,1157,19280.6016,26417.2656,-1.4339222358,7.41110216249,0,0,
2315,2315,1.1575000,91063,1158,19282.8848,26420.8691,2.38440044212,11.4217175013,0,0,
2316,2316,1.1580000,91063,1158,19280.8418,26417.7441,0.261874640357,9.86063131281,0,0,
2317,2317,1.1585000,91064,1159,19285.0488,26405.2441,3.76748642322,0.383151331115,0,0,
2318,2318,1.1590000,91064,1159,19284.8086,26406.0859,3.84899315439,4.00021056255,0,0,
2319,2319,1.1595000,91065,1160,19279.7598,26406.4453,-0.920839177502,6.58538904681,0,0,
2320,2320,1.1600000,91065,1160,19277.7168,26411.4941,-1.55179105705,12.1867636483,0,0,
2321,2321,1.1605000,91066,1161,19279.2793,26415.4609,0.658825387391,15.2391642519,0,0,
2322,2322,1.1610000,91066,1161,19279.7598,26415.3418,1.32360889199,16.4390254762,0,0,
2323,2323,1.1615000,91067,1162,19282.5254,26413.416,3.57520949463,15.1826139512,0,0,
2324,2324,1.1620000,91067,1162,19281.082,26408.9707,3.24372567922,11.0469662678,0,0,
2325,2325,1.1625000,91068,1163,19278.3184,26406.9277,1.4682877222,8.03487689181,0,0,
2326,2326,1.1630000,91068,1163,19282.2832,26406.9277,5.55772618921,7.47430303161,0,0,
2327,2327,1.1635000,91069,1164,19277.4766,26403.2012,0.951103266006,2.89361803695,0,0,
2328,2328,1.1640000,91069,1164,19280.1211,26400.916,3.39682498665,2.07346461101,0,0,
2329,2329,1.1645000,91070,1165,19278.4375,26407.0469,2.83925419645,7.7537306264,0,0,
2330,2330,1.1650000,91070,1165,19275.5527,26407.166,0.110935311885,8.5020464174,0,0,
2331,2331,1.1655000,91071,1166,19273.2695,26406.3262,-0.912067362856,7.43587517464,0,0,
2332,2332,1.1660000,91071,1166,19272.668,26411.1328,-1.27236234696,11.2600744714,0,0,
2333,2333,1.1665000,91072,1167,19273.2695,26409.5703,1.32560119611,10.0209367461,0,0,
2334,2334,1.1670000,91072,1167,19275.5527,26404.8828,4.50273167905,6.27232276986,0,0,
2335,2335,1.1675000,91073,1168,19274.5918,26403.9219,4.48727309038,5.53902103214,0,0,
2336,2336,1.1680000,91073,1168,19272.1875,26405.2441,3.08930999559,5.9084398494,0,0,
2337,2337,1.1685000,91074,1169,19273.75,26403.5625,4.00313170871,2.00160648643,0,0,
2338,2338,1.1690000,91074,1169,19274.9512,26405.3652,5.62923804176,3.71727816971,0,0,
2339,2339,1.1695000,91075,1170,19273.0293,26405.6035,2.86200598064,4.63185768114,0,0,
2340,2340,1.1700000,91075,1170,19275.5527,26408.4902,4.45367917852,4.92123518125,0,0,
2341,2341,1.1705000,91076,1171,19273.1484,26407.7676,2.3541966914,2.71076489048,0,0,
2342,2342,1.1710000,91076,1171,19272.0684,26406.3262,1.92456747309,-0.41863535872,0,0,
2343,2343,1.1715000,91077,1172,19272.4277,26405.002,2.52316038594,-1.5289177649,0,0,
2344,2344,1.1720000,91077,1172,19273.3887,26406.6875,3.13189414182,0.637765199063,0,0,
2345,2345,1.1725000,91078,1173,19270.0234,26412.3359,0.175254921776,5.06626714108,0,0,
2346,2346,1.1730000,91078,1173,19264.1348,26415.7012,-4.23272241541,6.04911834509,0,0,
2347,2347,1.1735000,91079,1174,19265.5762,26413.2969,-2.25226516875,4.30479477119,0,0,
2348,2348,1.1740000,91079,1174,19269.9043,26412.6973,2.08178152606,5.33020355254,0,0,
2349,2349,1.1745000,91080,1175,19271.1055,26411.375,3.70328423559,4.72335470593,0,0,
2350,2350,1.1750000,91080,1175,19269.0625,26409.5703,2.44052456487,4.03646521133,0,0,
2351,2351,1.1755000,91081,1176,19266.6582,26411.375,0.964374957348,3.11608110465,0,0,
2352,2352,1.1760000,91081,1176,19268.4609,26412.9375,2.90556200994,0.542411219164,0,0,
2353,2353,1.1765000,91082,1177,19267.6191,26417.9844,0.848823197596,2.28726073621,0,0,
2354,2354,1.1770000,91082,1177,19266.5371,26418.7051,1.37033324384,-0.181574349449,0,0,
2355,2355,1.1775000,91083,1178,19258.9648,26420.2676,-4.50557545179,-1.41712425313,0,0,
2356,2356,1.1780000,91083,1178,19262.4512,26426.4004,-0.899366627479,2.73776212585,0,0,
2357,2357,1.1785000,91084,1179,19265.6973,26425.7988,0.886289156864,1.39806364954,0,0,
2358,2358,1.1790000,91084,1179,19265.2168,26425.5566,0.709465431373,-1.59783951567,0,0,
2359,2359,1.1795000,91085,1180,19261.248,26425.3184,-2.22740262766,-4.16827327566,0,0,
2360,2360,1.1800000,91085,1180,19258.9648,26423.9941,-3.13076897305,-8.28536033424,0,0,
2361,2361,1.1805000,91086,1181,19260.8887,26427.4824,-1.23083084189,-8.02300789274,0,0,
2362,2362,1.1810000,91086,1181,19257.2832,26423.2734,-4.19288579142,-11.6789111759,0,0,
2363,2363,1.1815000,91087,1182,19254.1582,26427.9629,-6.60729539174,-7.61386343727,0,0,
2364,2364,1.1820000,91087,1182,19253.0762,26431.6875,-5.06868048407,-5.51971558226,0,0,
2365,2365,1.1825000,91088,1183,19252.4746,26434.5723,-3.46135535927,-6.23939909122,0,0,
2366,2366,1.1830000,91088,1183,19251.873,26438.0605,-3.13156864943,-6.56639068373,0,0,
2367,2367,1.1835000,91089,1184,19248.3867,26436.8574,-4.27475722486,-10.9590760175,0,0,
2368,2368,1.1840000,91089,1184,19247.0645,26434.0938,-4.46860686186,-14.6724476133,0,0,
2369,2369,1.1845000,91090,1185,19246.7051,26433.252,-2.23087380207,-17.8068918713,0,0,
2370,2370,1.1850000,91090,1185,19243.5801,26436.2559,-3.41304852839,-15.2122648809,0,0,
2371,2371,1.1855000,91091,1186,19243.3379,26432.7715,-1.51839165441,-18.705878626,0,0,
2372,2372,1.1860000,91091,1186,19244.4199,26434.2129,0.107048557078,-18.0862372474,0,0,
2373,2373,1.1865000,91092,1187,19245.3809,26434.5723,2.62699287238,-16.3971685261,0,0,
2374,2374,1.1870000,91092,1187,19248.0254,26438.5391,5.49062689671,-11.467129036,0,0,
2375,2375,1.1875000,91093,1188,19247.4258,26441.9062,5.70818607643,-8.97117777884,0,0,
2376,2376,1.1880000,91093,1188,19245.2617,26435.8965,4.63518687632,-15.4309018409,0,0,
2377,2377,1.1885000,91094,1189,19243.6992,26434.0938,2.63302246689,-17.8366993,0,0,
2378,2378,1.1890000,91094,1189,19243.459,26435.0547,3.09322836001,-16.1441494419,0,0,
2379,2379,1.1895000,91095,1190,19241.416,26440.8223,1.30734707817,-9.65805599133,0,0,
2380,2380,1.1900000,91095,1190,19237.0879,26448.5176,-2.49333213929,-5.10790939036,0,0,
2381,2381,1.1905000,91096,1191,19237.6895,26456.5703,-0.172465950016,-0.000274352589012,0,0,
2382,2382,1.1910000,91096,1191,19242.498,26460.7793,5.06411754986,0.582146400753,0,0,
2383,2383,1.1915000,91097,1192,19237.8105,26453.4453,1.1508870136,-7.20612615457,0,0,
2384,2384,1.1920000,91097,1192,19238.8906,26448.6387,2.28733900136,-11.2490383794,0,0,
2385,2385,1.1925000,91098,1193,19240.0938,26443.5879,4.04850498864,-15.4308734905,0,0,
2386,2386,1.1930000,91098,1193,19243.9395,26444.6699,7.92317971166,-13.5542946698,0,0,
2387,2387,1.1935000,91099,1194,19239.373,26445.6328,2.50865811158,-8.9855917853,0,0,
2388,2388,1.1940000,91099,1194,19237.8105,26453.3262,0.318754589512,1.01950186576,0,0,
2389,2389,1.1945000,91100,1195,19237.0879,26449.1172,0.272882602598,-0.811752253673,0,0,
2390,2390,1.1950000,91100,1195,19237.6895,26444.6699,1.90444564634,-1.93074193974,0,0,
2391,2391,1.1955000,91101,1196,19237.8105,26438.1797,2.73022738095,-7.32312889932,0,0,
2392,2392,1.1960000,91101,1196,19240.4551,26428.5625,4.45949778869,-14.9610820922,0,0,
2393,2393,1.1965000,91102,1197,19239.7324,26418.8281,2.31323057991,-20.3306707863,0,0,
2394,2394,1.1970000,91102,1197,19244.0605,26428.3223,6.50800414578,-7.94076865742,0,0,
2395,2395,1.1975000,91103,1198,19237.0879,26435.1738,0.840394751795,0.369859131065,0,0,
2396,2396,1.1980000,91103,1198,19237.0879,26441.1855,-0.521586643478,7.18065761286,0,0,
2397,2397,1.1985000,91104,1199,19239.0117,26447.7969,-0.820267318644,15.1679470352,0,0,
2398,2398,1.1990000,91104,1199,19238.5293,26442.8672,-1.30543613017,10.6298178824,0,0,
2399,2399,1.1995000,91105,1200,19243.6992,26436.2559,3.42069782867,5.69547195278,0,0,
2400,2400,1.2000000,91105,1200,19243.459,26431.3281,2.49297298988,2.59564074948,0,0,
2401,2401,1.2005000,91106,1201,19242.0176,26429.1641,-0.696060493921,1.57188732656,0,0,
2402,2402,1.2010000,91106,1201,19238.6504,26430.7266,-4.0166654019,7.17965296324,0,0,
2403,2403,1.2015000,91107,1202,19239.0117,26434.4531,-4.16619122462,11.9734944263,0,0,
2404,2404,1.2020000,91107,1202,19239.6113,26440.4629,-3.08048257057,17.6061256724,0,0,
2405,2405,1.2025000,91108,1203,19239.7324,26440.584,-2.79673950104,16.163372238,0,0,
2406,2406,1.2030000,91108,1203,19242.9785,26438.1797,-0.913655911498,12.6996529665,0,0,
2407,2407,1.2035000,91109,1204,19240.5742,26436.498,-2.88143379863,11.0620459863,0,0,
2408,2408,1.2040000,91109,1204,19239.6113,26433.7324,-4.58497432467,10.0104077628,0,0,
2409,2409,1.2045000,91110,1205,19239.7324,26436.2559,-4.03960513635,11.7300130876,0,0,
2410,2410,1.2050000,91110,1205,19240.6934,26443.8281,-3.13366702043,18.0157377704,0,0,
2411,2411,1.2055000,91111,1206,19236.4863,26448.6387,-6.72652486385,21.3781008542,0,0,
2412,2412,1.2060000,91111,1206,19238.0488,26448.7578,-5.94872680391,18.6505786572,0,0,
2413,2413,1.2065000,91112,1207,19236.2461,26445.873,-6.94789527775,15.4733480544,0,0,
2414,2414,1.2070000,91112,1207,19236.0059,26446.834,-7.08772111801,15.630219622,0,0,
2415,2415,1.2075000,91113,1208,19231.4395,26443.1074,-9.57156801057,11.0245566605,0,0,
2416,2416,1.2080000,91113,1208,19231.0781,26439.623,-7.68501808462,8.17130359798,0,0,
2417,2417,1.2085000,91114,1209,19228.0723,26443.709,-9.49799722971,10.5724527132,0,0,
2418,2418,1.2090000,91114,1209,19227.5918,26443.709,-8.12785086032,9.52268495028,0,0,
2419,2419,1.2095000,91115,1210,19230.2363,26442.1465,-4.56802250261,7.29857906539,0,0,
2420,2420,1.2100000,91115,1210,19231.3184,26436.6172,-2.89348138118,0.0381174709745,0,0,
2421,2421,1.2105000,91116,1211,19232.8809,26435.4141,-0.831609911345,-1.42996207512,0,0,
2422,2422,1.2110000,91116,1211,19235.5254,26433.6113,1.01111218668,-2.66737443734,0,0,
2423,2423,1.2115000,91117,1212,19235.166,26436.8574,1.32789145599,3.29697156013,0,0,
2424,2424,1.2120000,91117,1212,19232.0391,26442.8672,-1.87713491586,9.9522449753,0,0,
2425,2425,1.2125000,91118,1213,19236.2461,26449.5996,2.12258596057,15.0110684799,0,0,
2426,2426,1.2130000,91118,1213,19238.0488,26444.9121,3.27887047377,8.57247794377,0,0,
2427,2427,1.2135000,91119,1214,19239.4922,26440.8223,3.99804500617,5.99728401947,0,0,
2428,2428,1.2140000,91119,1214,19238.5293,26439.7422,1.93217005468,5.66181448292,0,0,
2429,2429,1.2145000,91120,1215,19235.4043,26441.4238,-0.782330110806,9.18606880712,0,0,
2430,2430,1.2150000,91120,1215,19238.1699,26440.7031,2.09773364006,10.2770593499,0,0,
2431,2431,1.2155000,91121,1216,19237.8105,26445.5137,1.92562684058,13.3267883987,0,0,
2432,2432,1.2160000,91121,1216,19236.2461,26443.709,-0.316722689093,9.8008633551,0,0,
2433,2433,1.2165000,91122,1217,19238.0488,26446.834,0.621596198101,11.0037435871,0,0,
2434,2434,1.2170000,91122,1217,19237.6895,26448.998,0.365066187518,8.20635615233,0,0,
2435,2435,1.2175000,91123,1218,19236.0059,26447.4355,1.16716762581,3.19183875855,0,0,
2436,2436,1.2180000,91123,1218,19239.0117,26448.2754,2.57941566594,1.51070219528,0,0,
2437,2437,1.2185000,91124,1219,19237.9297,26450.4395,-0.47797668767,2.51107905895,0,0,
2438,2438,1.2190000,91124,1219,19242.1367,26451.7637,3.1402032533,3.08262058782,0,0,
2439,2439,1.2195000,91125,1220,19238.4102,26451.6426,-0.824569625122,2.48257091816,0,0,
2440,2440,1.2200000,91125,1220,19236.3672,26451.1621,-1.89980453668,0.733264599242,0,0,
2441,2441,1.2205000,91126,1221,19235.2852,26456.5703,-2.78797861496,2.66525759605,0,0,
2442,2442,1.2210000,91126,1221,19237.4492,26458.7344,0.213170095186,3.29838153198,0,0,
2443,2443,1.2215000,91127,1222,19232.6406,26459.0938,-3.94510658433,0.475807746365,0,0,
2444,2444,1.2220000,91127,1222,19233.4824,26464.5059,-1.84190711692,1.6159361109,0,0,
2445,2445,1.2225000,91128,1223,19233.8418,26461.7402,-0.514550864968,-4.23282653314,0,0,
2446,2446,1.2230000,91128,1223,19233.4824,26460.6562,-1.13516967684,-7.45264894453,0,0,
2447,2447,1.2235000,91129,1224,19231.9199,26461.9785,-0.684068189745,-7.83155680929,0,0,
2448,2448,1.2240000,91129,1224,19234.8047,26466.1875,2.1035030187,-4.80372747658,0,0,
2449,2449,1.2245000,91130,1225,19233.6035,26465.5859,1.7206496702,-8.61515783221,0,0,
2450,2450,1.2250000,91130,1225,19232.0391,26465.2246,0.847235296472,-11.6899598114,0,0,
2451,2451,1.2255000,91131,1226,19233.7227,26465.5859,3.54599957701,-12.5579868446,0,0,
2452,2452,1.2260000,91131,1226,19230.7168,26469.1934,0.155356985704,-10.9457094596,0,0,
2453,2453,1.2265000,91132,1227,19233.7227,26466.1875,3.70939479798,-13.1547403495,0,0,
2454,2454,1.2270000,91132,1227,19233.9629,26466.3066,3.53496502447,-13.1535571684,0,0,
2455,2455,1.2275000,91133,1228,19236.3672,26463.4219,6.64972149128,-15.3365788623,0,0,
2456,2456,1.2280000,91133,1228,19231.7988,26463.6621,3.04087729198,-13.877177181,0,0,
2457,2457,1.2285000,91134,1229,19226.752,26465.9453,-0.874259987571,-13.2580324588,0,0,
2458,2458,1.2290000,91134,1229,19231.0781,26466.1875,3.67589922602,-13.2768911345,0,0,
2459,2459,1.2295000,91135,1230,19229.5156,26465.1035,1.88455636164,-13.9867302526,0,0,
2460,2460,1.2300000,91135,1230,19230.3574,26465.8262,2.63359492406,-14.0517724449,0,0,
2461,2461,1.2305000,91136,1231,19228.3145,26464.3828,1.04247068269,-15.7452137696,0,0,
2462,2462,1.2310000,91136,1231,19229.3965,26461.6191,1.5670216278,-17.5956379445,0,0,
2463,2463,1.2315000,91137,1232,19223.7461,26459.6953,-1.90872034791,-16.7604935052,0,0,
2464,2464,1.2320000,91137,1232,19226.752,26458.6152,1.85293826538,-15.8742203336,0,0,
2465,2465,1.2325000,91138,1233,19224.707,26461.1387,0.117603150877,-12.6703036471,0,0,
2466,2466,1.2330000,91138,1233,19222.4238,26460.6562,-1.0888390853,-11.2247281194,0,0,
2467,2467,1.2335000,91139,1234,19215.9316,26452.7246,-5.19152752221,-14.122784724,0,0,
2468,2468,1.2340000,91139,1234,19220.7402,26453.3262,0.683609765125,-10.2286664813,0,0,
2469,2469,1.2345000,91140,1235,19218.3359,26452.002,0.591177805217,-7.51581730571,0,0,
2470,2470,1.2350000,91140,1235,19218.3359,26450.0801,1.78553066257,-4.90176532764,0,0,
2471,2471,1.2355000,91141,1236,19216.8945,26451.7637,2.19282007632,-2.26487154548,0,0,
2472,2472,1.2360000,91141,1236,19217.375,26451.5215,3.4231820967,-0.74712070162,0,0,
2473,2473,1.2365000,91142,1237,19213.4082,26454.5254,0.296439945323,2.64222026665,0,0,
2474,2474,1.2370000,91142,1237,19210.8848,26457.0527,-0.0431359320306,3.04245348237,0,0,
2475,2475,1.2375000,91143,1238,19211.6055,26457.291,4.24341675732,2.56364535117,0,0,
2476,2476,1.2380000,91143,1238,19210.4043,26460.1777,2.97819645071,4.42899529508,0,0,
2477,2477,1.2385000,91144,1239,19207.6387,26462.5801,0.70598072215,6.46764419215,0,0,
2478,2478,1.2390000,91144,1239,19211.3652,26467.0293,4.72816351992,10.3490215342,0,0,
2479,2479,1.2395000,91145,1240,19209.2012,26468.8301,4.155455255,11.6913346044,0,0,
2480,2480,1.2400000,91145,1240,19208.2402,26476.0449,4.94752273254,16.4039826885,0,0,
2481,2481,1.2405000,91146,1241,19202.1094,26478.4473,0.545542837466,14.0912009001,0,0,
2482,2482,1.2410000,91146,1241,19202.3496,26482.4141,2.46684349466,15.3021815494,0,0,
2483,2483,1.2415000,91147,1242,19201.6289,26485.4199,3.6149622349,14.2123791158,0,0,
2484,2484,1.2420000,91147,1242,19201.748,26477.9668,4.88862843845,3.43793759465,0,0,
2485,2485,1.2425000,91148,1243,19204.2734,26473.5176,7.83620127985,-1.48046516081,0,0,
2486,2486,1.2430000,91148,1243,19200.9082,26471.1152,4.53363050434,-3.82418735067,0,0,
2487,2487,1.2435000,91149,1244,19198.623,26463.7832,4.35483085221,-9.71537876933,0,0,
2488,2488,1.2440000,91149,1244,19195.2578,26456.6895,1.57420351673,-13.6588749209,0,0,
2489,2489,1.2445000,91150,1245,19194.8965,26458.1328,2.94149487079,-10.6247505842,0,0,
2490,2490,1.2450000,91150,1245,19190.3301,26457.4121,0.439796035771,-9.80949689363,0,0,
2491,2491,1.2455000,91151,1246,19189.6074,26456.0879,1.59059413854,-8.67855702219,0,0,
2492,2492,1.2460000,91151,1246,19190.5703,26456.2109,3.21705923951,-7.13821110591,0,0,
2493,2493,1.2465000,91152,1247,19190.5703,26456.2109,3.80259186848,-3.21760636021,0,0,
2494,2494,1.2470000,91152,1247,19187.9258,26464.2637,1.89539392808,5.44671862108,0,0,
2495,2495,1.2475000,91153,1248,19185.8809,26471.5957,1.6631292747,12.4542611166,0,0,
2496,2496,1.2480000,91153,1248,19186.2422,26473.2793,4.18851888776,13.3212650586,0,0,
2497,2497,1.2485000,91154,1249,19185.4004,26474,4.73471216678,10.8793284223,0,0,
2498,2498,1.2490000,91154,1249,19180.1113,26477.9668,-0.00782662929888,12.5224776662,0,0,
2499,2499,1.2495000,91155,1250,19182.3965,26488.4238,2.67208681421,19.2836461649,0,0,
2500,2500,1.2500000,91155,1250,19183.7188,26486.8613,3.75511816451,13.5033270159,0,0,
2501,2501,1.2505000,91156,1251,19182.0352,26480.3691,2.66236454785,4.92779198553,0,0,
2502,2502,1.2510000,91156,1251,19182.2754,26473.5176,2.11925373267,-1.85153193208,0,0,
2503,2503,1.2515000,91157,1252,19184.3184,26466.0684,5.3308693195,-6.7852948648,0,0,
2504,2504,1.2520000,91157,1252,19180.2324,26469.0723,0.965601909359,-2.91191298069,0,0,
2505,2505,1.2525000,91158,1253,19180.4727,26468.3516,1.10261720696,-3.8602867714,0,0,
2506,2506,1.2530000,91158,1253,19179.0293,26466.4277,0.042794713744,-4.15102372618,0,0,
2507,2507,1.2535000,91159,1254,19177.8281,26468.1094,0.117284678975,1.22581089918,0,0,
2508,2508,1.2540000,91159,1254,19180.3535,26466.3066,1.13223854006,0.59172862153,0,0,
2509,2509,1.2545000,91160,1255,19181.3145,26465.5859,2.4827207005,2.00125102711,0,0,
2510,2510,1.2550000,91160,1255,19181.1934,26459.3359,1.54898348891,-0.658064718293,0,0,
2511,2511,1.2555000,91161,1256,19179.752,26458.8535,0.263359159218,-0.704477478977,0,0,
2512,2512,1.2560000,91161,1256,19178.3086,26454.5254,-1.76689377187,-2.801077775,0,0,
2513,2513,1.2565000,91162,1257,19179.9922,26453.8047,-0.684612951853,-2.43459702372,0,0,
2514,2514,1.2570000,91162,1257,19178.1895,26448.7578,-2.24348088217,-7.00081043341,0,0,
2515,2515,1.2575000,91163,1258,19176.7461,26449.7188,-2.36023927874,-4.42892226432,0,0,
2516,2516,1.2580000,91163,1258,19172.2988,26451.041,-7.1717792689,-2.26498124459,0,0,
2517,2517,1.2585000,91164,1259,19171.457,26455.3691,-7.8916992394,2.85368186747,0,0,
2518,2518,1.2590000,91164,1259,19172.6602,26459.4551,-7.43105060182,6.9808809078,0,0,
2519,2519,1.2595000,91165,1260,19173.2598,26457.8926,-5.80365349023,6.51971463181,0,0,
2520,2520,1.2600000,91165,1260,19169.5332,26450.0801,-7.95852278416,-0.262240420981,0,0,
2521,2521,1.2605000,91166,1261,19170.7363,26453.3262,-5.51160307379,2.5312434024,0,0,
2522,2522,1.2610000,91166,1261,19172.2988,26455.248,-4.103013073,5.1344884429,0,0,
2523,2523,1.2615000,91167,1262,19170.0156,26455.248,-5.66684492587,5.02951941324,0,0,
2524,2524,1.2620000,91167,1262,19167.6113,26454.4062,-7.41953370938,5.02255080818,0,0,
2525,2525,1.2625000,91168,1263,19168.2129,26459.4551,-6.74845829023,10.351522964,0,0,
2526,2526,1.2630000,91168,1263,19171.3379,26454.0469,-3.83506995613,5.6772678383,0,0,
2527,2527,1.2635000,91169,1264,19169.8945,26450.9219,-4.06454230628,4.41077484572,0,0,
2528,2528,1.2640000,91169,1264,19172.2988,26454.0469,-2.36638980036,8.64627238001,0,0,
2529,2529,1.2645000,91170,1265,19172.7793,26462.5801,-2.16689180323,14.0706085793,0,0,
2530,2530,1.2650000,91170,1265,19169.4141,26460.6562,-4.62622650021,9.96763906347,0,0,
2531,2531,1.2655000,91171,1266,19165.0879,26462.0996,-7.98469668552,9.8175677984,0,0,
2532,2532,1.2660000,91171,1266,19161.4805,26467.2676,-10.8348370492,11.5970467125,0,0,
2533,2533,1.2665000,91172,1267,19160.6387,26477.125,-10.5262819321,18.5565924787,0,0,
2534,2534,1.2670000,91172,1267,19167.7324,26485.2988,-3.45995135654,20.1021732696,0,0,
2535,2535,1.2675000,91173,1268,19164.9668,26475.8027,-5.14134831669,7.21599064546,0,0,
2536,2536,1.2680000,91173,1268,19165.207,26465.5859,-3.78811224687,-3.11106833938,0,0,
2537,2537,1.2685000,91174,1269,19167.25,26454.2871,-1.3730173929,-13.9125800152,0,0,
2538,2538,1.2690000,91174,1269,19167.3711,26458.0137,-1.46627482186,-9.94475819158,0,0,
2539,2539,1.2695000,91175,1270,19166.8887,26458.373,-2.97455997817,-10.0979666512,0,0,
2540,2540,1.2700000,91175,1270,19166.2891,26459.4551,-4.28978384143,-8.4810795744,0,0,
2541,2541,1.2705000,91176,1271,19165.3262,26455.7285,-4.65541909344,-9.9112257024,0,0,
2542,2542,1.2710000,91176,1271,19167.7324,26456.5703,-3.39014035575,-6.80107822113,0,0,
2543,2543,1.2715000,91177,1272,19166.8887,26457.4121,-3.43235821514,-3.38059039671,0,0,
2544,2544,1.2720000,91177,1272,19168.5723,26458.8535,-1.85183487384,-2.45509522895,0,0,
2545,2545,1.2725000,91178,1273,19166.5293,26460.7793,-4.08426653877,-1.64500184222,0,0,
2546,2546,1.2730000,91178,1273,19166.8887,26466.666,-3.38098332196,3.40853485191,0,0,
2547,2547,1.2735000,91179,1274,19167.3711,26466.7891,-2.05614136232,4.13880991047,0,0,
2548,2548,1.2740000,91179,1274,19169.0527,26469.4316,-2.16397284413,5.42375109584,0,0,
2549,2549,1.2745000,91180,1275,19165.9277,26471.4766,-4.30290569623,6.38932734211,0,0,
2550,2550,1.2750000,91180,1275,19163.7637,26477.3652,-5.76921234375,11.4394754024,0,0,
2551,2551,1.2755000,91181,1276,19161.7207,26478.0859,-5.96501796482,7.93309762911,0,0,
2552,2552,1.2760000,91181,1276,19162.5625,26477.9668,-4.34308430022,5.52006492394,0,0,
2553,2553,1.2765000,91182,1277,19164.125,26480.1309,-2.62095928193,3.76613754188,0,0,
2554,2554,1.2770000,91182,1277,19164.125,26474.1191,-1.42993769313,-4.96747301347,0,0,
2555,2555,1.2775000,91183,1278,19161.8418,26462.9395,-1.54517102159,-16.2790113245,0,0,
2556,2556,1.2780000,91183,1278,19164.9668,26459.9375,1.54068921247,-18.9802032302,0,0,
2557,2557,1.2785000,91184,1279,19167.3711,26460.0566,3.06135837664,-18.2414605491,0,0,
2558,2558,1.2790000,91184,1279,19166.2891,26459.5762,0.630458946971,-17.7071566961,0,0,
2559,2559,1.2795000,91185,1280,19166.1699,26463.7832,0.969116858567,-11.6635904255,0,0,
2560,2560,1.2800000,91185,1280,19161.8418,26463.0625,-1.36675749906,-10.6575387035,0,0,
2561,2561,1.2805000,91186,1281,19164.3652,26453.6855,1.69725949847,-19.0945699073,0,0,
2562,2562,1.2810000,91186,1281,19169.1738,26448.0371,5.31330049476,-21.2131649532,0,0,
2563,2563,1.2815000,91187,1282,19170.6152,26451.6426,6.45272865407,-15.2378747526,0,0,
2564,2564,1.2820000,91187,1282,19170.1348,26455.3691,5.46211695772,-9.26726616217,0,0,
2565,2565,1.2825000,91188,1283,19170.2559,26454.5254,4.30759314812,-8.41735668769,0,0,
2566,2566,1.2830000,91188,1283,19168.9336,26459.5762,2.02743636909,-1.37807946454,0,0,
2567,2567,1.2835000,91189,1284,19170.0156,26457.7734,3.80947613931,-0.984252562095,0,0,
2568,2568,1.2840000,91189,1284,19176.3848,26451.7637,7.90368835404,-4.81582415562,0,0,
2569,2569,1.2845000,91190,1285,19172.0586,26448.7578,3.14854717687,-7.96535908356,0,0,
2570,2570,1.2850000,91190,1285,19174.7031,26445.752,5.99317003424,-8.36951213687,0,0,
2571,2571,1.2855000,91191,1286,19172.6602,26447.0762,4.11832972613,-5.00097059756,0,0,
2572,2572,1.2860000,91191,1286,19171.9395,26446.4746,2.8904980359,-4.96329122338,0,0,
2573,2573,1.2865000,91192,1287,19173.1406,26450.0801,3.17407456155,-0.497881687703,0,0,
2574,2574,1.2870000,91192,1287,19172.5391,26453.6855,0.858143507645,1.7019353095,0,0,
2575,2575,1.2875000,91193,1288,19170.9766,26452.8438,0.335728081526,3.35857075219,0,0,
2576,2576,1.2880000,91193,1288,19171.9395,26444.791,1.69632811934,-0.254668848987,0,0,
2577,2577,1.2885000,91194,1289,19168.2129,26439.2598,-1.37257467797,-2.07955564938,0,0,
2578,2578,1.2890000,91194,1289,19171.3379,26432.5312,1.71967026991,-6.51142761212,0,0,
2579,2579,1.2895000,91195,1290,19176.0254,26430.248,4.85817017571,-6.24990382306,0,0,
2580,2580,1.2900000,91195,1290,19179.5117,26439.623,6.38046325219,4.3431573876,0,0,
2581,2581,1.2905000,91196,1291,19172.5391,26445.2715,-0.0814652921097,11.5546242718,0,0,
2582,2582,1.2910000,91196,1291,19173.0215,26448.3965,-0.728538721821,14.8406670319,0,0,
2583,2583,1.2915000,91197,1292,19171.8184,26449.4785,-0.780657286568,16.3430815452,0,0,
2584,2584,1.2920000,91197,1292,19169.1738,26463.4219,-2.68027425153,25.7493317069,0,0,
2585,2585,1.2925000,91198,1293,19170.2559,26468.1094,-0.872490856343,25.0896544033,0,0,
2586,2586,1.2930000,91198,1293,19170.9766,26462.9395,0.391203925481,16.5027300901,0,0,
2587,2587,1.2935000,91199,1294,19172.7793,26459.0938,2.81515988068,12.464810695,0,0,
2588,2588,1.2940000,91199,1294,19169.7754,26470.7559,-1.0042855662,20.1253637931,0,0,
2589,2589,1.2945000,91200,1295,19172.2988,26480.6113,2.68987850259,24.994440676,0,0,
2590,2590,1.2950000,91200,1295,19177.3477,26480.25,7.0798132752,20.6184862648,0,0,
2591,2591,1.2955000,91201,1296,19180.4727,26476.6426,9.57421588512,12.4145440858,0,0,
2592,2592,1.2960000,91201,1296,19178.3086,26470.875,6.17087903253,4.970667897,0,0,
2593,2593,1.2965000,91202,1297,19176.7461,26455.248,3.51141066081,-10.6342542035,0,0,
2594,2594,1.2970000,91202,1297,19176.1465,26441.0645,3.16643697306,-20.9419760705,0,0,
2595,2595,1.2975000,91203,1298,19177.9473,26427.7207,5.73850417277,-27.3904964333,0,0,
2596,2596,1.2980000,91203,1298,19173.9824,26428.084,1.20657618347,-22.6508160441,0,0,
2597,2597,1.2985000,91204,1299,19177.2285,26427.9629,3.19389527747,-19.169079095,0,0,
2598,2598,1.2990000,91204,1299,19175.6641,26426.8809,0.807606089318,-16.4982756476,0,0,
2599,2599,1.2995000,91205,1300,19174.9434,26426.5215,0.613978291584,-12.9031579873,0,0,
2600,2600,1.3000000,91205,1300,19174.584,26431.6875,2.06521174289,-4.4559481791,0,0,
2601,2601,1.3005000,91206,1301,19178.6699,26441.5449,5.15440860122,5.76946793024,0,0,
2602,2602,1.3010000,91206,1301,19174.1016,26442.2656,-0.344930010907,7.01498275704,0,0,
2603,2603,1.3015000,91207,1302,19176.5059,26445.752,2.2347221087,8.48402727788,0,0,
2604,2604,1.3020000,91207,1302,19176.2656,26446.1113,2.25826035896,7.60064638021,0,0,
2605,2605,1.3025000,91208,1303,19172.6602,26447.3145,-1.16891294084,7.82275435596,0,0,
2606,2606,1.3030000,91208,1303,19175.1836,26444.1895,1.18354100981,4.5346785651,0,0,
2607,2607,1.3035000,91209,1304,19173.3809,26445.873,0.532040581553,6.96949625025,0,0,
2608,2608,1.3040000,91209,1304,19176.2656,26448.6387,1.68663345496,9.70467930284,0,0,
2609,2609,1.3045000,91210,1305,19172.6602,26446.4746,-0.313027469735,5.14091231245,0,0,
2610,2610,1.3050000,91210,1305,19172.7793,26444.3105,0.825922928545,2.86783836704,0,0,
2611,2611,1.3055000,91211,1306,19170.8574,26443.709,0.640944967971,1.47653138923,0,0,
2612,2612,1.3060000,91211,1306,19174.2227,26440.8223,3.9604648756,-2.25972198137,0,0,
2613,2613,1.3065000,91212,1307,19176.627,26434.9355,5.27946994754,-7.66899637338,0,0,
2614,2614,1.3070000,91212,1307,19172.5391,26436.9766,0.471640815268,-6.6843488398,0,0,
2615,2615,1.3075000,91213,1308,19171.0957,26435.8965,0.564762045174,-4.83573804181,0,0,
2616,2616,1.3080000,91213,1308,19170.4961,26429.6465,0.678059756676,-5.56841873917,0,0,
2617,2617,1.3085000,91214,1309,19171.6973,26428.6855,2.67397626503,-3.03860113769,0,0,
2618,2618,1.3090000,91214,1309,19171.5781,26432.2891,2.01539952154,1.22021989203,0,0,
2619,2619,1.3095000,91215,1310,19173.0215,26435.1738,1.9573607014,3.30081016134,0,0,
2620,2620,1.3100000,91215,1310,19169.2949,26429.1641,-2.07675796552,-3.59281108541,0,0,
2621,2621,1.3105000,91216,1311,19171.8184,26428.9238,2.13308178555,-2.48821546185,0,0,
2622,2622,1.3110000,91216,1311,19174.3418,26427.1191,3.05071983461,-2.68064346845,0,0,
2623,2623,1.3115000,91217,1312,19178.1895,26431.4473,6.461338799,3.05937237297,0,0,
2624,2624,1.3120000,91217,1312,19177.709,26432.2891,5.19207237183,1.17410941096,0,0,
2625,2625,1.3125000,91218,1313,19175.1836,26432.2891,1.95012529412,0.246300300538,0,0,
2626,2626,1.3130000,91218,1313,19178.9102,26432.0488,4.37478678037,1.22121307615,0,0,
2627,2627,1.3135000,91219,1314,19175.0645,26433.8516,0.293798042407,5.10732858379,0,0,
2628,2628,1.3140000,91219,1314,19172.7793,26435.6562,-2.51408219398,4.53299612729,0,0,
2629,2629,1.3145000,91220,1315,19171.457,26437.2188,-3.13525201875,4.56650680482,0,0,
2630,2630,1.3150000,91220,1315,19171.457,26437.459,-3.4703088176,5.52048135577,0,0,
2631,2631,1.3155000,91221,1316,19169.5332,26441.9062,-4.47431540206,8.84677234804,0,0,
2632,2632,1.3160000,91221,1316,19168.8125,26441.7871,-4.1974814361,8.99677913531,0,0,
2633,2633,1.3165000,91222,1317,19170.0156,26438.6621,-2.74284349345,6.93700545954,0,0,
2634,2634,1.3170000,91222,1317,19172.0586,26431.6875,-0.209877238881,2.52401107807,0,0,
2635,2635,1.3175000,91223,1318,19170.2559,26434.2129,-0.956967956199,7.0290355061,0,0,
2636,2636,1.3180000,91223,1318,19168.2129,26436.9766,-2.32236976792,7.08200546304,0,0,
2637,2637,1.3185000,91224,1319,19168.2129,26438.1797,-3.10737274293,5.41381943916,0,0,
2638,2638,1.3190000,91224,1319,19170.377,26438.2988,-1.24869376766,3.34653495165,0,0,
2639,2639,1.3195000,91225,1320,19170.8574,26434.0938,-0.451099320098,-1.69338048153,0,0,
2640,2640,1.3200000,91225,1320,19170.8574,26431.3281,0.734496358805,-4.93444449658,0,0,
2641,2641,1.3205000,91226,1321,19169.2949,26428.8047,-1.67853705342,-8.50906225054,0,0,
2642,2642,1.3210000,91226,1321,19173.3809,26424.8359,1.58819996331,-10.6075470391,0,0,
2643,2643,1.3215000,91227,1322,19172.0586,26425.0781,-0.302294448167,-10.5449091343,0,0,
2644,2644,1.3220000,91227,1322,19171.3379,26421.9531,-0.879352901322,-12.0739639869,0,0,
2645,2645,1.3225000,91228,1323,19169.6543,26426.7598,-2.17899981059,-6.55983340917,0,0,
2646,2646,1.3230000,91228,1323,19166.1699,26427.3613,-5.60183065422,-4.58641633805,0,0,
2647,2647,1.3235000,91229,1324,19169.8945,26423.6348,-1.03454258832,-6.19867813084,0,0,
2648,2648,1.3240000,91229,1324,19172.4199,26424.8359,-0.817614645741,-3.57479444022,0,0,
2649,2649,1.3245000,91230,1325,19169.6543,26426.7598,-2.04436846769,-2.08599894447,0,0,
2650,2650,1.3250000,91230,1325,19173.502,26422.4316,1.43484531161,-4.69815397006,0,0,
2651,2651,1.3255000,91231,1326,19174.7031,26421.7109,2.76491141946,-4.6641115769,0,0,
2652,2652,1.3260000,91231,1326,19175.9043,26422.4316,2.19707814422,-3.59405746006,0,0,
2653,2653,1.3265000,91232,1327,19177.5879,26420.3906,1.75228904864,-4.41089888719,0,0,
2654,2654,1.3270000,91232,1327,19174.9434,26418.1074,-1.57880789471,-7.42799379113,0,0,
2655,2655,1.3275000,91233,1328,19174.3418,26419.5488,-1.64860043016,-3.4455981276,0,0,
2656,2656,1.3280000,91233,1328,19172.9004,26420.5098,-3.08419265823,1.76872940019,0,0,
2657,2657,1.3285000,91234,1329,19171.8184,26420.1484,-3.90400491949,2.99577092594,0,0,
2658,2658,1.3290000,91234,1329,19172.0586,26416.5449,-4.20250358869,-0.645456681796,0,0,
2659,2659,1.3295000,91235,1330,19178.9102,26416.1816,0.0313196321574,-1.41928948938,0,0,
2660,2660,1.3300000,91235,1330,19175.5449,26419.5488,-3.85570887853,1.39592643444,0,0,
2661,2661,1.3305000,91236,1331,19175.0645,26417.8652,-3.7981683594,0.150498412973,0,0,
2662,2662,1.3310000,91236,1331,19175.9043,26414.2598,-4.61709008166,-2.04220430632,0,0,
2663,2663,1.3315000,91237,1332,19177.3477,26413.1777,-3.6535811981,-2.02083308378,0,0,
2664,2664,1.3320000,91237,1332,19175.1836,26409.3301,-5.36798709799,-6.49498826238,0,0,
2665,2665,1.3325000,91238,1333,19178.0684,26406.9277,-2.65376550088,-7.60906718269,0,0,
2666,2666,1.3330000,91238,1333,19181.0742,26409.5703,-1.35807407513,-2.68663721819,0,0,
2667,2667,1.3335000,91239,1334,19183.959,26413.5391,0.949698243744,3.27767944948,0,0,
2668,2668,1.3340000,91239,1334,19184.1992,26423.0332,-0.253560671049,9.63541878895,0,0,
2669,2669,1.3345000,91240,1335,19178.0684,26426.4004,-5.89482402054,10.3154796566,0,0,
2670,2670,1.3350000,91240,1335,19181.0742,26427.4824,-3.96812894092,10.7168467752,0,0,
2671,2671,1.3355000,91241,1336,19184.1992,26423.5156,-1.36290277102,5.51799408722,0,0,
2672,2672,1.3360000,91241,1336,19185.5215,26420.5098,-0.9021103752,3.83939954979,0,0,
2673,2673,1.3365000,91242,1337,19182.7559,26424.3574,-4.47401764123,8.79397463939,0,0,
2674,2674,1.3370000,91242,1337,19181.7949,26427.3613,-5.46441637594,12.9643949367,0,0,
2675,2675,1.3375000,91243,1338,19181.1934,26428.6855,-5.0005063682,13.5142077982,0,0,
2676,2676,1.3380000,91243,1338,19182.3965,26431.8105,-3.51499502738,12.2169141821,0,0,
2677,2677,1.3385000,91244,1339,19180.2324,26437.459,-6.40094750229,12.9611077551,0,0,
2678,2678,1.3390000,91244,1339,19182.1562,26437.0996,-5.10960923631,8.82303185114,0,0,
2679,2679,1.3395000,91245,1340,19186.2422,26426.2793,-1.43663476537,-2.28331471104,0,0,
2680,2680,1.3400000,91245,1340,19190.6895,26417.1426,2.66144095796,-10.3737550941,0,0,
2681,2681,1.3405000,91246,1341,19189.127,26422.4316,-0.333273482477,-6.11277032761,0,0,
2682,2682,1.3410000,91246,1341,19185.5215,26431.6875,-4.79483186022,2.25420511205,0,0,
2683,2683,1.3415000,91247,1342,19184.0801,26426.5215,-5.72698853265,-4.88185959087,0,0,
2684,2684,1.3420000,91247,1342,19182.0352,26417.625,-6.54433535107,-12.2781256804,0,0,
2685,2685,1.3425000,91248,1343,19189.6074,26412.0957,0.822261170803,-16.5120736927,0,0,
2686,2686,1.3430000,91248,1343,19188.7676,26403.5625,-0.472029822125,-20.6913743308,0,0,
2687,2687,1.3435000,91249,1344,19193.0938,26401.877,2.63546172346,-17.2427367132,0,0,
2688,2688,1.3440000,91249,1344,19189.4883,26408.25,-3.05542528187,-8.55397999874,0,0,
2689,2689,1.3445000,91250,1345,19190.0879,26414.6191,-0.991567428081,-2.49770958186,0,0,
2690,2690,1.3450000,91250,1345,19191.1699,26411.9766,-0.664788431966,-2.82869052227,0,0,
2691,2691,1.3455000,91251,1346,19195.377,26405.9668,3.18503564254,-6.99268237878,0,0,
2692,2692,1.3460000,91251,1346,19195.8574,26399.5938,2.03136553021,-10.8499122984,0,0,
2693,2693,1.3465000,91252,1347,19190.4492,26400.3145,-3.94098757073,-7.12708714647,0,0,
2694,2694,1.3470000,91252,1347,19194.416,26402.8418,0.126859739117,-4.22212861983,0,0,
2695,2695,1.3475000,91253,1348,19195.1387,26406.6875,1.28425608668,1.30758689524,0,0,
2696,2696,1.3480000,91253,1348,19193.5742,26417.5059,-0.00185940548322,13.3354370375,0,0,
2697,2697,1.3485000,91254,1349,19193.9355,26419.3066,0.543184828383,14.2539946219,0,0,
2698,2698,1.3490000,91254,1349,19198.1426,26414.6191,3.32748333631,8.4875909899,0,0,
2699,2699,1.3495000,91255,1350,19197.4219,26404.5234,-0.200948978272,-1.55706716468,0,0,
2700,2700,1.3500000,91255,1350,19197.7832,26405.8457,0.368565603361,-0.671524010494,0,0,
2701,2701,1.3505000,91256,1351,19195.498,26409.6934,-1.05772652073,3.41438785985,0,0,
2702,2702,1.3510000,91256,1351,19197.9023,26416.0625,-0.110219544536,9.28533295204,0,0,
2703,2703,1.3515000,91257,1352,19196.7012,26414.0176,-1.40809626159,6.40528634199,0,0,
2704,2704,1.3520000,91257,1352,19197.4219,26412.5762,0.103895146948,3.0632838069,0,0,
2705,2705,1.3525000,91258,1353,19198.502,26406.5645,0.82559715458,-2.67208916593,0,0,
2706,2706,1.3530000,91258,1353,19199.7051,26408.3691,0.758805018646,-0.50858512594,0,0,
2707,2707,1.3535000,91259,1354,19198.8633,26406.0859,0.246749811283,-1.5841827537,0,0,
2708,2708,1.3540000,91259,1354,19197.7832,26407.2871,-0.523471378222,-2.77554697288,0,0,
2709,2709,1.3545000,91260,1355,19195.6191,26406.9277,-0.465500961563,-3.36691074115,0,0,
2710,2710,1.3550000,91260,1355,19198.3828,26401.877,1.3808201282,-5.63874592234,0,0,
2711,2711,1.3555000,91261,1356,19199.8262,26404.041,2.58667882577,-1.65555875977,0,0,
2712,2712,1.3560000,91261,1356,19202.5898,26403.5625,4.82856126144,0.808064463433,0,0,
2713,2713,1.3565000,91262,1357,19202.2285,26406.3262,4.2856895188,4.99790402986,0,0,
2714,2714,1.3570000,91262,1357,19200.0664,26404.2812,2.40727439891,5.42452159283,0,0,
2715,2715,1.3575000,91263,1358,19200.9082,26396.8301,4.01049446037,0.708493755338,0,0,
2716,2716,1.3580000,91263,1358,19200.9082,26399.9551,4.00336436206,2.89287956377,0,0,
2717,2717,1.3585000,91264,1359,19203.0703,26398.2734,5.17008834035,0.412284080757,0,0,
2718,2718,1.3590000,91264,1359,19205.1152,26397.3105,5.48167676837,0.389076934401,0,0,
2719,2719,1.3595000,91265,1360,19200.1855,26396.7109,0.364047508086,3.16392481473,0,0,
2720,2720,1.3600000,91265,1360,19198.9844,26393.9453,-0.069987110506,2.9903374375,0,0,
2721,2721,1.3605000,91266,1361,19198.502,26393.8262,0.132436127873,1.82307589424,0,0,
2722,2722,1.3610000,91266,1361,19198.623,26393.7051,0.878372271031,1.60149317478,0,0,
2723,2723,1.3615000,91267,1362,19200.666,26398.873,3.38961822048,6.38535873792,0,0,
2724,2724,1.3620000,91267,1362,19198.623,26397.791,2.46912300457,6.77854674234,0,0,
2725,2725,1.3625000,91268,1363,19199.584,26402.5996,2.70564256806,10.2344867195,0,0,
2726,2726,1.3630000,91268,1363,19199.8262,26405.2441,3.37714788957,12.6447490781,0,0,
2727,2727,1.3635000,91269,1364,19205.9551,26406.5645,7.78809525547,12.8350766385,0,0,
2728,2728,1.3640000,91269,1364,19201.6289,26413.0566,2.72924181237,14.7996512698,0,0,
2729,2729,1.3645000,91270,1365,19202.9512,26413.8984,5.05438453469,10.5904635644,0,0,
2730,2730,1.3650000,91270,1365,19197.7832,26419.0684,0.175404023884,13.4672641404,0,0,
2731,2731,1.3655000,91271,1366,19199.2246,26426.7598,1.94335898546,16.9826347331,0,0,
2732,2732,1.3660000,91271,1366,19201.5078,26432.4082,3.71880382188,17.4333246179,0,0,
2733,2733,1.3665000,91272,1367,19203.6719,26430.8457,5.77350425501,10.9743485903,0,0,
2734,2734,1.3670000,91272,1367,19205.1152,26427.6016,6.19871439346,2.32997045528,0,0,
2735,2735,1.3675000,91273,1368,19208.2402,26430.248,8.71651172299,1.23568064048,0,0,
2736,2736,1.3680000,91273,1368,19207.5176,26420.8691,7.5657989526,-9.17018127362,0,0,
2737,2737,1.3685000,91274,1369,19207.6387,26420.5098,6.86082131073,-9.81483948186,0,0,
2738,2738,1.3690000,91274,1369,19206.4355,26419.6699,3.84538782434,-10.4640056331,0,0,
2739,2739,1.3695000,91275,1370,19204.1523,26419.3066,-0.120885205405,-10.4117838729,0,0,
2740,2740,1.3700000,91275,1370,19203.0703,26419.5488,-0.534254647485,-11.9652348944,0,0,
2741,2741,1.3705000,91276,1371,19205.1152,26414.5,2.26541169405,-16.7871047434,0,0,
2742,2742,1.3710000,91276,1371,19202.1094,26415.5801,-1.76498547879,-15.4796892349,0,0,
2743,2743,1.3715000,91277,1372,19204.7539,26418.2266,0.798119121682,-12.1258401657,0,0,
2744,2744,1.3720000,91277,1372,19204.2734,26419.6699,0.737733810071,-11.4840454469,0,0,
2745,2745,1.3725000,91278,1373,19202.1094,26425.7988,-1.41879121183,-5.77962779899,0,0,
2746,2746,1.3730000,91278,1373,19204.5137,26434.2129,-0.104809935677,-0.304801689614,0,0,
2747,2747,1.3735000,91279,1374,19201.9902,26436.498,-1.78270520325,0.0832617061614,0,0,
2748,2748,1.3740000,91279,1374,19204.0332,26434.5723,0.426086986893,-6.22132059374,0,0,
2749,2749,1.3745000,91280,1375,19206.3164,26433.0098,3.71620160155,-9.49854374355,0,0,
2750,2750,1.3750000,91280,1375,19203.9121,26433.1309,-0.115619409828,-8.41720889652,0,0,
2751,2751,1.3755000,91281,1376,19202.3496,26435.6562,-1.73920117773,-6.84274284639,0,0,
2752,2752,1.3760000,91281,1376,19201.8691,26440.4629,-2.23322614914,-2.20886955499,0,0,
2753,2753,1.3765000,91282,1377,19200.9082,26440.4629,-2.32742234286,-3.2678591268,0,0,
2754,2754,1.3770000,91282,1377,19196.5801,26437.9395,-4.77597477319,-4.58459242724,0,0,
2755,2755,1.3775000,91283,1378,19202.3496,26434.8145,1.5028286973,-5.72168985368,0,0,
2756,2756,1.3780000,91283,1378,19201.9902,26432.0488,1.21541568089,-10.0733804826,0,0,
2757,2757,1.3785000,91284,1379,19198.1426,26431.8105,-2.67441537634,-10.8644788001,0,0,
2758,2758,1.3790000,91284,1379,19198.2637,26432.7715,-2.94922689889,-9.38097796348,0,0,
2759,2759,1.3795000,91285,1380,19197.0605,26431.5684,-2.81624266565,-7.85292743635,0,0,
2760,2760,1.3800000,91285,1380,19199.2246,26424.1172,-0.0826448835104,-11.6467016902,0,0,
2761,2761,1.3805000,91286,1381,19202.2285,26419.1875,2.57203146751,-15.3402154217,0,0,
2762,2762,1.3810000,91286,1381,19202.1094,26425.6797,2.03143411907,-8.18498114527,0,0,
2763,2763,1.3815000,91287,1382,19201.1465,26423.5156,0.769732494823,-9.48753508859,0,0,
2764,2764,1.3820000,91287,1382,19202.3496,26423.5156,2.39220398721,-6.15344215934,0,0,
2765,2765,1.3825000,91288,1383,19202.8301,26421.4707,1.36120783393,-7.04837771879,0,0,
2766,2766,1.3830000,91288,1383,19201.5078,26423.6348,-0.0483057196769,-2.51137583342,0,0,
2767,2767,1.3835000,91289,1384,19202.4707,26421.2324,-1.05248582517,-2.47430454451,0,0,
2768,2768,1.3840000,91289,1384,19200.1855,26422.4316,-2.85923015865,-1.84673924241,0,0,
2769,2769,1.3845000,91290,1385,19197.1816,26422.4316,-4.34902446212,-1.89584055709,0,0,
2770,2770,1.3850000,91290,1385,19202.709,26419.6699,1.25389930972,-2.23355371889,0,0,
2771,2771,1.3855000,91291,1386,19197.0605,26419.3066,-4.15611511627,-1.13340468667,0,0,
2772,2772,1.3860000,91291,1386,19200.4258,26420.5098,-1.62371562201,1.34981940888,0,0,
2773,2773,1.3865000,91292,1387,19194.416,26424.7168,-6.53975156437,6.71263476838,0,0,
2774,2774,1.3870000,91292,1387,19196.459,26427.1191,-4.25705664386,8.55007247316,0,0,
2775,2775,1.3875000,91293,1388,19196.459,26426.6406,-3.5718428563,7.82462977004,0,0,
2776,2776,1.3880000,91293,1388,19200.7871,26425.5566,1.19086567122,9.05749950514,0,0,
2777,2777,1.3885000,91294,1389,19199.2246,26423.5156,-0.183018453333,8.15954031459,0,0,
2778,2778,1.3890000,91294,1389,19196.5801,26427.7207,-2.973688577,12.7480310788,0,0,
2779,2779,1.3895000,91295,1390,19195.498,26428.6855,-4.23451360919,13.7791577813,0,0,
2780,2780,1.3900000,91295,1390,19196.459,26428.6855,-2.31439004028,11.9138356268,0,0,
2781,2781,1.3905000,91296,1391,19196.9395,26434.5723,-1.17933047317,16.4025128018,0,0,
2782,2782,1.3910000,91296,1391,19198.1426,26440.1016,-0.587927743644,18.5426097889,0,0,
2783,2783,1.3915000,91297,1392,19192.7324,26437.2188,-5.41783443814,13.6343321318,0,0,
2784,2784,1.3920000,91297,1392,19192.7324,26433.6113,-4.01702796692,8.14231170495,0,0,
2785,2785,1.3925000,91298,1393,19191.1699,26428.6855,-4.39494307012,2.83180488373,0,0,
2786,2786,1.3930000,91298,1393,19192.4941,26429.0449,-3.57401048186,1.69307215656,0,0,
2787,2787,1.3935000,91299,1394,19192.6133,26429.4043,-2.02952625895,2.64120537683,0,0,
2788,2788,1.3940000,91299,1394,19192.0117,26431.9297,-2.2075768334,3.38215666044,0,0,
2789,2789,1.3945000,91300,1395,19188.5254,26428.084,-3.6102659148,-0.0341800553084,0,0,
2790,2790,1.3950000,91300,1395,19190.8105,26426.4004,-1.32770082514,0.556805311186,0,0,
2791,2791,1.3955000,91301,1396,19188.8867,26432.6504,-2.36266219424,6.03818031981,0,0,
2792,2792,1.3960000,91301,1396,19190.9316,26435.6562,-0.190255718987,8.57011545448,0,0,
2793,2793,1.3965000,91302,1397,19190.4492,26432.6504,0.130885254641,5.7342078984,0,0,
2794,2794,1.3970000,91302,1397,19189.6074,26430.7266,0.894453864346,5.92347020791,0,0,
2795,2795,1.3975000,91303,1398,19186.3633,26430.125,-2.08000092605,7.46030611412,0,0,
2796,2796,1.3980000,91303,1398,19184.5605,26433.7324,-2.53843372149,8.89024893969,0,0,
2797,2797,1.3985000,91304,1399,19184.5605,26432.0488,-1.46474564738,5.60541115778,0,0,
2798,2798,1.3990000,91304,1399,19185.7617,26435.5371,-0.550818609799,7.58807531154,0,0,
2799,2799,1.3995000,91305,1400,19184.7988,26435.0547,-0.224830472748,7.69200560394,0,0,
2800,2800,1.4000000,91305,1400,19182.0352,26435.6562,-2.0518595501,9.37784344942,0,0,
2801,2801,1.4005000,91306,1401,19186.3633,26433.252,1.94514063777,5.33792737053,0,0,
2802,2802,1.4010000,91306,1401,19183.5977,26431.6875,-0.134213345165,1.18711226387,0,0,
2803,2803,1.4015000,91307,1402,19188.2871,26433.1309,4.28815881466,1.37040056205,0,0,
2804,2804,1.4020000,91307,1402,19183.959,26435.0547,0.895119220677,3.345055158,0,0,
2805,2805,1.4025000,91308,1403,19182.998,26439.8613,-0.339878143216,5.74326917196,0,0,
2806,2806,1.4030000,91308,1403,19182.6367,26442.0254,0.21060218868,5.93614344627,0,0,
2807,2807,1.4035000,91309,1404,19187.2051,26440.584,2.92375262839,3.63819105264,0,0,
2808,2808,1.4040000,91309,1404,19187.8047,26434.0938,3.69325942685,-5.02262465811,0,0,
2809,2809,1.4045000,91310,1405,19186.9629,26431.9297,3.61305835315,-8.12072394374,0,0,
2810,2810,1.4050000,91310,1405,19188.7676,26427.8418,4.10542932055,-10.2580302879,0,0,
2811,2811,1.4055000,91311,1406,19185.041,26430.8457,1.11853787227,-7.15271537978,0,0,
2812,2812,1.4060000,91311,1406,19181.5547,26429.7656,-2.93843698556,-8.02872448377,0,0,
2813,2813,1.4065000,91312,1407,19182.5156,26430.125,-0.543754436538,-7.34897727935,0,0,
2814,2814,1.4070000,91312,1407,19180.2324,26425.4375,-2.82655640056,-11.3357709504,0,0,
2815,2815,1.4075000,91313,1408,19181.6738,26426.0391,-0.921972928464,-9.5441374176,0,0,
2816,2816,1.4080000,91313,1408,19184.0801,26424.4766,1.2355200397,-7.77864750686,0,0,
2817,2817,1.4085000,91314,1409,19182.6367,26422.0723,0.490724017691,-7.63929606863,0,0,
2818,2818,1.4090000,91314,1409,19183.3574,26424.1172,1.17437049262,-4.62379076147,0,0,
2819,2819,1.4095000,91315,1410,19182.5156,26425.7988,-0.0622417988758,-1.84806912835,0,0,
2820,2820,1.4100000,91315,1410,19180.4727,26423.3965,-1.38355165435,-4.15097084196,0,0,
2821,2821,1.4105000,91316,1411,19178.791,26425.3184,-2.0831744793,-2.34432771442,0,0,
2822,2822,1.4110000,91316,1411,19180.4727,26424.3574,-0.729223591375,-3.88985970761,0,0,
2823,2823,1.4115000,91317,1412,19178.3086,26422.0723,-1.6050763247,-4.40911550691,0,0,
2824,2824,1.4120000,91317,1412,19178.0684,26421.9531,-0.945404832606,-3.49104744116,0,0,
2825,2825,1.4125000,91318,1413,19181.4355,26418.7051,2.52366018566,-4.78266402268,0,0,
2826,2826,1.4130000,91318,1413,19181.4355,26414.1387,1.06131280815,-8.55814740761,0,0,
2827,2827,1.4135000,91319,1414,19182.5156,26417.3848,2.35727245565,-3.66196007938,0,0,
2828,2828,1.4140000,91319,1414,19182.5156,26416.4219,1.90165099222,-4.79522163577,0,0,
2829,2829,1.4145000,91320,1415,19182.0352,26422.9141,2.39180810684,2.35575741986,0,0,
2830,2830,1.4150000,91320,1415,19179.5117,26421.2324,-0.90821084116,2.354280244,0,0,
2831,2831,1.4155000,91321,1416,19179.873,26420.5098,-0.145163443026,0.644211222105,0,0,
2832,2832,1.4160000,91321,1416,19182.2754,26419.6699,1.260321158,0.347796146726,0,0,
2833,2833,1.4165000,91322,1417,19179.2715,26421.9531,-1.10329664412,3.69453266848,0,0,
2834,2834,1.4170000,91322,1417,19176.0254,26423.875,-2.49251518662,7.17929607445,0,0,
2835,2835,1.4175000,91323,1418,19176.8672,26422.4316,-1.18007606285,7.22785711982,0,0,
2836,2836,1.4180000,91323,1418,19176.8672,26427.3613,-0.442291415237,9.1044731822,0,0,
2837,2837,1.4185000,91324,1419,19175.3047,26425.1973,-1.45224112393,5.55461122463,0,0,
2838,2838,1.4190000,91324,1419,19174.9434,26423.3965,-2.22593339128,2.44756695323,0,0,
2839,2839,1.4195000,91325,1420,19172.9004,26420.9902,-2.75327965392,1.51323810789,0,0,
2840,2840,1.4200000,91325,1420,19177.4668,26422.3125,1.98179912693,4.23238416209,0,0,
2841,2841,1.4205000,91326,1421,19176.9863,26421.834,0.284064264917,3.13695207521,0,0,
2842,2842,1.4210000,91326,1421,19178.6699,26419.0684,2.18217468246,-0.980145805017,0,0,
2843,2843,1.4215000,91327,1422,19174.8223,26419.1875,-1.95177002569,-1.56845473536,0,0,
2844,2844,1.4220000,91327,1422,19177.709,26423.875,1.98811631105,2.74167694769,0,0,
2845,2845,1.4225000,91328,1423,19173.8613,26428.4434,-1.8168776201,4.41662256338,0,0,
2846,2846,1.4230000,91328,1423,19176.0254,26429.2832,0.74284616752,3.49551281198,0,0,
2847,2847,1.4235000,91329,1424,19174.2227,26425.7988,-2.56488835534,0.236283331335,0,0,
2848,2848,1.4240000,91329,1424,19173.2598,26425.7988,-2.36544125305,-0.891008373403,0,0,
2849,2849,1.4245000,91330,1425,19173.6211,26423.7559,-0.407601586536,-3.92767066829,0,0,
2850,2850,1.4250000,91330,1425,19180.5918,26423.2734,4.89046107318,-3.35181315566,0,0,
2851,2851,1.4255000,91331,1426,19177.1074,26423.9941,2.48245675899,-3.91375385605,0,0,
2852,2852,1.4260000,91331,1426,19177.709,26424.5957,2.31329889318,-3.91934435638,0,0,
2853,2853,1.4265000,91332,1427,19176.7461,26421.834,1.75820675097,-6.76879141249,0,0,
2854,2854,1.4270000,91332,1427,19177.2285,26422.0723,1.70718675835,-6.1975114756,0,0,
2855,2855,1.4275000,91333,1428,19179.9922,26420.1484,3.40677321164,-7.85091943616,0,0,
2856,2856,1.4280000,91333,1428,19176.2656,26421.834,-0.811872871983,-4.29959876946,0,0,
2857,2857,1.4285000,91334,1429,19175.0645,26423.3965,-1.00001033654,-1.95845133158,0,0,
2858,2858,1.4290000,91334,1429,19178.791,26425.6797,2.13125948726,-0.893385594234,0,0,
2859,2859,1.4295000,91335,1430,19181.6738,26424.1172,3.78792265135,-2.662904639,0,0,
2860,2860,1.4300000,91335,1430,19176.0254,26422.3125,-1.11858061368,-4.61935765042,0,0,
2861,2861,1.4305000,91336,1431,19176.8672,26426.8809,0.162675761945,-1.64696046312,0,0,
2862,2862,1.4310000,91336,1431,19176.0254,26428.2031,-1.38279436747,-1.98293594137,0,0,
2863,2863,1.4315000,91337,1432,19178.6699,26422.0723,1.7320093265,-6.67872153117,0,0,
2864,2864,1.4320000,91337,1432,19180.3535,26422.9141,2.93308113653,-5.49557214541,0,0,
2865,2865,1.4325000,91338,1433,19180.5918,26423.9941,2.08496315293,-3.42914671515,0,0,
2866,2866,1.4330000,91338,1433,19180.9531,26420.2676,0.819798060761,-6.79884521634,0,0,
2867,2867,1.4335000,91339,1434,19180.9531,26416.9043,0.600309529134,-9.22911923839,0,0,
2868,2868,1.4340000,91339,1434,19180.7129,26416.1816,-0.0730130889419,-9.59795985165,0,0,
2869,2869,1.4345000,91340,1435,19183.1172,26417.1426,2.60959038564,-8.02267216813,0,0,
2870,2870,1.4350000,91340,1435,19179.873,26419.9082,-1.09793601482,-3.09572849419,0,0,
2871,2871,1.4355000,91341,1436,19179.1504,26424.5957,-1.65166778114,0.389937272571,0,0,
2872,2872,1.4360000,91341,1436,19179.1504,26421.5918,-2.50077893644,-2.03474504847,0,0,
2873,2873,1.4365000,91342,1437,19179.752,26425.6797,-1.05459169465,2.1279888634,0,0,
2874,2874,1.4370000,91342,1437,19179.2715,26427.1191,-0.158346977848,4.30225403314,0,0,
2875,2875,1.4375000,91343,1438,19182.3965,26430.4863,2.06612333575,8.17468416212,0,0,
2876,2876,1.4380000,91343,1438,19175.3047,26430.3672,-4.01406080502,4.78767404803,0,0,
2877,2877,1.4385000,91344,1439,19176.3848,26434.0938,-2.26696673645,6.92857880566,0,0,
2878,2878,1.4390000,91344,1439,19176.7461,26434.5723,-2.35560677421,5.51950560624,0,0,
2879,2879,1.4395000,91345,1440,19175.4238,26434.334,-2.34096589988,5.49635456466,0,0,
2880,2880,1.4400000,91345,1440,19173.502,26432.7715,-4.02333787429,4.10916324947,0,0,
2881,2881,1.4405000,91346,1441,19178.791,26428.9238,0.236628548706,0.00636443440835,0,0,
2882,2882,1.4410000,91346,1441,19175.7852,26422.0723,-2.15355292793,-6.35728148592,0,0,
2883,2883,1.4415000,91347,1442,19175.7852,26413.7793,-1.61061981374,-12.6272201923,0,0,
2884,2884,1.4420000,91347,1442,19177.5879,26411.0137,0.652010396699,-12.7856383928,0,0,
2885,2885,1.4425000,91348,1443,19182.877,26412.4551,5.18698168321,-10.4502670597,0,0,
2886,2886,1.4430000,91348,1443,19178.4297,26412.2168,0.497163399493,-8.31828455531,0,0,
2887,2887,1.4435000,91349,1444,19174.9434,26412.9375,-3.56381300147,-3.98224142465,0,0,
2888,2888,1.4440000,91349,1444,19175.6641,26411.9766,-1.80009548336,-3.22309828859,0,0,
2889,2889,1.4445000,91350,1445,19179.9922,26412.5762,2.89563748446,-1.18452528461,0,0,
2890,2890,1.4450000,91350,1445,19179.5117,26415.7012,0.383221117802,3.76813020165,0,0,
2891,2891,1.4455000,91351,1446,19177.8281,26417.7441,0.591924322726,5.13762601621,0,0,
2892,2892,1.4460000,91351,1446,19176.8672,26415.2207,-0.498540185319,3.01651296431,0,0,
2893,2893,1.4465000,91352,1447,19180.7129,26421.834,3.48719616313,9.15613187838,0,0,
2894,2894,1.4470000,91352,1447,19176.8672,26425.0781,-0.376377381166,11.1001088286,0,0,
2895,2895,1.4475000,91353,1448,19177.8281,26434.6934,-0.00830722650874,17.6626270318,0,0,
2896,2896,1.4480000,91353,1448,19173.9824,26434.334,-2.72086086679,15.5067543597,0,0,
2897,2897,1.4485000,91354,1449,19170.8574,26431.9297,-3.73438328062,11.5198807711,0,0,
2898,2898,1.4490000,91354,1449,19171.9395,26427.3613,-2.42293268311,5.15069824988,0,0,
2899,2899,1.4495000,91355,1450,19173.2598,26423.6348,-1.05641578973,1.66657083636,0,0,
2900,2900,1.4500000,91355,1450,19173.2598,26420.5098,1.01473075987,-0.888397070624,0,0,
2901,2901,1.4505000,91356,1451,19171.0957,26416.9043,-0.121750600417,-4.83147927835,0,0,
2902,2902,1.4510000,91356,1451,19173.0215,26416.9043,1.61723250988,-4.5048750053,0,0,
2903,2903,1.4515000,91357,1452,19174.1016,26420.8691,2.98543803416,1.57044726952,0,0,
2904,2904,1.4520000,91357,1452,19175.6641,26421.4707,4.22338500891,2.01167939695,0,0,
2905,2905,1.4525000,91358,1453,19173.9824,26419.3066,2.33303418353,0.773202382608,0,0,
2906,2906,1.4530000,91358,1453,19174.2227,26415.4609,1.82863364315,-1.71578577697,0,0,
2907,2907,1.4535000,91359,1454,19174.3418,26415.7012,2.27162880013,-0.511938173428,0,0,
2908,2908,1.4540000,91359,1454,19175.6641,26416.1816,3.40049463901,-0.30253409175,0,0,
2909,2909,1.4545000,91360,1455,19175.1836,26419.1875,3.26137121339,1.92610595497,0,0,
2910,2910,1.4550000,91360,1455,19175.7852,26420.75,3.91569196517,3.87755833062,0,0,
2911,2911,1.4555000,91361,1456,19173.3809,26424.1172,1.8565432184,4.86752983273,0,0,
2912,2912,1.4560000,91361,1456,19176.2656,26427.2422,3.51882143075,7.42377579062,0,0,
2913,2913,1.4565000,91362,1457,19178.5488,26424.8359,5.48712403852,3.99682913785,0,0,
2914,2914,1.4570000,91362,1457,19177.8281,26432.6504,5.1909697643,10.6203495938,0,0,
2915,2915,1.4575000,91363,1458,19175.6641,26440.3438,1.9790691038,15.8228690174,0,0,
2916,2916,1.4580000,91363,1458,19176.8672,26446.834,4.06599369975,16.4476904121,0,0,
2917,2917,1.4585000,91364,1459,19175.0645,26450.6797,1.86462663371,15.2824811177,0,0,
2918,2918,1.4590000,91364,1459,19175.1836,26446.4746,0.940460673254,7.71764934718,0,0,
2919,2919,1.4595000,91365,1460,19174.1016,26430.4863,0.573516238263,-6.53556310365,0,0,
2920,2920,1.4600000,91365,1460,19177.8281,26417.9844,3.20511991495,-15.0503617663,0,0,
2921,2921,1.4605000,91366,1461,19174.584,26409.2109,-1.80203014712,-19.0973209172,0,0,
2922,2922,1.4610000,91366,1461,19176.1465,26405.2441,0.0946127862106,-18.1283695181,0,0,
2923,2923,1.4615000,91367,1462,19175.3047,26403.3203,-0.857937325224,-15.197759244,0,0,
2924,2924,1.4620000,91367,1462,19175.4238,26409.8125,-0.905488636168,-6.52458569171,0,0,
2925,2925,1.4625000,91368,1463,19174.8223,26414.9824,-2.18884034084,-2.12504936214,0,0,
2926,2926,1.4630000,91368,1463,19180.7129,26420.2676,3.29765131522,2.91520711221,0,0,
2927,2927,1.4635000,91369,1464,19179.752,26422.9141,1.07569473052,5.92822150779,0,0,
2928,2928,1.4640000,91369,1464,19177.9473,26426.4004,-0.915474059989,7.97428738999,0,0,
2929,2929,1.4645000,91370,1465,19177.709,26425.1973,-1.62439200469,5.43932876937,0,0,
2930,2930,1.4650000,91370,1465,19178.6699,26433.8516,-2.34066281277,11.7280921251,0,0,
2931,2931,1.4655000,91371,1466,19178.791,26439.3828,-0.8570829842,12.7821868455,0,0,
2932,2932,1.4660000,91371,1466,19178.9102,26440.9453,-1.2838544223,11.2491070864,0,0,
2933,2933,1.4665000,91372,1467,19181.0742,26443.1074,-0.0265748921969,9.0667047695,0,0,
2934,2934,1.4670000,91372,1467,19180.4727,26441.9062,-0.679929957316,4.75345639232,0,0,
2935,2935,1.4675000,91373,1468,19182.3965,26442.9863,-0.335543941243,1.90893843483,0,0,
2936,2936,1.4680000,91373,1468,19177.709,26456.8105,-3.9672683264,12.1100171751,0,0,
2937,2937,1.4685000,91374,1469,19173.6211,26462.9395,-6.08738147739,13.8257402466,0,0,
2938,2938,1.4690000,91374,1469,19176.0254,26468.5918,-4.26372411528,13.7881699863,0,0,
2939,2939,1.4695000,91375,1470,19175.7852,26460.5371,-4.88932388464,2.96518032199,0,0,
2940,2940,1.4700000,91375,1470,19175.7852,26439.2598,-3.34289469369,-16.8931201387,0,0,
2941,2941,1.4705000,91376,1471,19181.4355,26424.8359,1.98548706092,-28.2969695292,0,0,
2942,2942,1.4710000,91376,1471,19182.3965,26417.0234,1.20124534051,-31.9053087679,0,0,
2943,2943,1.4715000,91377,1472,19179.752,26420.1484,-1.74228078939,-24.0961319118,0,0,
2944,2944,1.4720000,91377,1472,19179.6309,26422.7949,-2.33676240952,-18.5900300009,0,0,
2945,2945,1.4725000,91378,1473,19184.6797,26423.7559,1.7190204945,-14.2010572947,0,0,
2946,2946,1.4730000,91378,1473,19187.5645,26424.959,2.43676881193,-10.0428999674,0,0,
2947,2947,1.4735000,91379,1474,19186.6035,26429.4043,0.603040849992,-4.67488994648,0,0,
2948,2948,1.4740000,91379,1474,19183.7188,26435.0547,-2.81585028771,-0.117174464066,0,0,
2949,2949,1.4745000,91380,1475,19184.1992,26437.8203,-2.18440300988,0.809397219359,0,0,
2950,2950,1.4750000,91380,1475,19186.3633,26433.9707,-0.541478935475,-2.48406736871,0,0,
2951,2951,1.4755000,91381,1476,19184.6797,26432.2891,-1.93380494545,-5.19298472718,0,0,
2952,2952,1.4760000,91381,1476,19186.2422,26427.9629,-2.03740277265,-7.71076583154,0,0,
2953,2953,1.4765000,91382,1477,19186.4824,26427.6016,-2.14212431486,-6.14473194585,0,0,
2954,2954,1.4770000,91382,1477,19187.3242,26434.8145,-0.719942382827,0.680641290254,0,0,
2955,2955,1.4775000,91383,1478,19183.3574,26436.377,-4.58133245672,1.83610030524,0,0,
2956,2956,1.4780000,91383,1478,19185.7617,26433.373,-1.44520956788,-2.47458068231,0,0,
2957,2957,1.4785000,91384,1479,19185.041,26436.2559,-2.023731937,0.026152557847,0,0,
2958,2958,1.4790000,91384,1479,19183.5977,26435.7754,-3.88019445292,0.912158309022,0,0,
2959,2959,1.4795000,91385,1480,19184.3184,26435.2949,-2.26878505241,4.85398195822,0,0,
2960,2960,1.4800000,91385,1480,19183.3574,26433.7324,-3.80776429762,6.60944794449,0,0,
2961,2961,1.4805000,91386,1481,19183.3574,26435.7754,-4.1801488593,9.87372403367,0,0,
2962,2962,1.4810000,91386,1481,19186.2422,26434.8145,-1.23615760593,9.13081344345,0,0,
2963,2963,1.4815000,91387,1482,19188.7676,26433.7324,0.858163513296,8.06587831986,0,0,
2964,2964,1.4820000,91387,1482,19191.1699,26435.5371,2.23442432212,7.39130273325,0,0,
2965,2965,1.4825000,91388,1483,19186.3633,26437.459,-2.91001630137,5.70585967345,0,0,
2966,2966,1.4830000,91388,1483,19191.4121,26436.6172,0.901570991938,3.07174639011,0,0,
2967,2967,1.4835000,91389,1484,19192.6133,26434.9355,1.17471875394,1.55383513647,0,0,
2968,2968,1.4840000,91389,1484,19190.8105,26434.5723,-0.479263014809,0.482873738892,0,0,
2969,2969,1.4845000,91390,1485,19194.2949,26435.2949,1.92820956134,1.07246055364,0,0,
2970,2970,1.4850000,91390,1485,19191.8926,26438.4199,-1.98821008383,2.24945834091,0,0,
2971,2971,1.4855000,91391,1486,19192.252,26438.7812,-0.556975557161,0.470482364571,0,0,
2972,2972,1.4860000,91391,1486,19193.2148,26438.2988,-0.169138606902,-0.09919331454,0,0,
2973,2973,1.4865000,91392,1487,19195.6191,26440.1016,0.95535754088,0.284182666394,0,0,
2974,2974,1.4870000,91392,1487,19193.0938,26435.1738,-1.1827501116,-3.94496936254,0,0,
2975,2975,1.4875000,91393,1488,19191.4121,26431.209,-3.50140651504,-7.66939593587,0,0,
2976,2976,1.4880000,91393,1488,19191.4121,26424.8359,-1.67672522206,-12.6343271889,0,0,
2977,2977,1.4885000,91394,1489,19194.5371,26425.0781,2.48481349349,-9.66745089654,0,0,
2978,2978,1.4890000,91394,1489,19191.6504,26426.0391,-1.53021913815,-6.84738689532,0,0,
2979,2979,1.4895000,91395,1490,19190.209,26430.6074,-3.11761715059,1.34374221801,0,0,
2980,2980,1.4900000,91395,1490,19193.8145,26432.8906,1.14226606507,8.0894390217,0,0,
2981,2981,1.4905000,91396,1491,19192.6133,26433.0098,-0.629678091527,9.62782053533,0,0,
2982,2982,1.4910000,91396,1491,19191.0508,26436.1348,-2.5005232901,11.8747362179,0,0,
2983,2983,1.4915000,91397,1492,19191.8926,26433.7324,-0.872146110911,8.28509592885,0,0,
2984,2984,1.4920000,91397,1492,19192.252,26428.084,-0.517803981943,2.06153680431,0,0,
2985,2985,1.4925000,91398,1493,19193.8145,26432.4082,0.221573158209,6.11363754038,0,0,
2986,2986,1.4930000,91398,1493,19190.4492,26432.1699,-3.33476840158,5.6670529688,0,0,
2987,2987,1.4935000,91399,1494,19194.416,26431.5684,1.07983408861,3.73779929135,0,0,
2988,2988,1.4940000,91399,1494,19192.373,26429.4043,-0.133602104323,-0.0110505141557,0,0,
2989,2989,1.4945000,91400,1495,19197.0605,26433.0098,4.33414600655,1.75117078608,0,0,
2990,2990,1.4950000,91400,1495,19192.9746,26437.6973,0.369337452656,6.11181064719,0,0,
2991,2991,1.4955000,91401,1496,19192.9746,26443.709,1.48022461696,8.69134523145,0,0,
2992,2992,1.4960000,91401,1496,19191.0508,26445.0312,-0.956920583011,8.53108483417,0,0,
2993,2993,1.4965000,91402,1497,19191.7715,26442.748,0.335320761325,4.78512827461,0,0,
2994,2994,1.4970000,91402,1497,19193.8145,26436.9766,3.20003964599,-2.99613697412,0,0,
2995,2995,1.4975000,91403,1498,19192.7324,26433.8516,2.88499959354,-6.0397173277,0,0,
2996,2996,1.4980000,91403,1498,19190.4492,26442.1465,1.44813675629,0.278076774981,0,0,
2997,2997,1.4985000,91404,1499,19189.7285,26443.1074,1.62764990093,-0.68458616624,0,0,
2998,2998,1.4990000,91404,1499,19191.8926,26442.8672,3.58068279147,-0.7008278354,0,0,
2999,2999,1.4995000,91405,1500,19188.6465,26437.8203,1.45744597066,-2.09009977824,0,0,
3000,3000,1.5000000,91405,1500,19193.2148,26433.373,5.14209798503,-2.95753270831,0,0,
3001,3001,1.5005000,91406,1501,19192.8535,26439.502,3.94092279218,3.50431808922,0,0,
3002,3002,1.5010000,91406,1501,19194.0566,26443.4688,4.39451378083,6.69104488515,0,0,
3003,3003,1.5015000,91407,1502,19196.459,26443.5879,5.73076851122,5.79253362843,0,0,
3004,3004,1.5020000,91407,1502,19197.4219,26443.1074,5.43455839136,2.31760721742,0,0,
3005,3005,1.5025000,91408,1503,19195.6191,26439.3828,3.75699342575,-4.12044790404,0,0,
3006,3006,1.5030000,91408,1503,19190.9316,26438.7812,-1.62415872561,-5.4909214111,0,0,
3007,3007,1.5035000,91409,1504,19187.9258,26438.7812,-3.64194615664,-4.87964695486,0,0,
3008,3008,1.5040000,91409,1504,19188.2871,26440.4629,-1.49639244753,-3.93438561056,0,0,
3009,3009,1.5045000,91410,1505,19190.9316,26438.2988,0.843651681693,-5.98188506229,0,0,
3010,3010,1.5050000,91410,1505,19191.4121,26437.5781,1.11739031575,-7.77287036894,0,0,
3011,3011,1.5055000,91411,1506,19193.2148,26434.9355,3.80128538946,-10.5686436506,0,0,
3012,3012,1.5060000,91411,1506,19192.252,26429.4043,2.58050638607,-13.6006572244,0,0,
3013,3013,1.5065000,91412,1507,19195.8574,26433.8516,4.73150643461,-8.92730815033,0,0,
3014,3014,1.5070000,91412,1507,19197.9023,26437.6973,6.68777666095,-3.6782492779,0,0,
3015,3015,1.5075000,91413,1508,19198.2637,26441.4238,5.5964337916,-0.597250142194,0,0,
3016,3016,1.5080000,91413,1508,19195.2578,26440.8223,3.40930603824,-1.37678546171,0,0,
3017,3017,1.5085000,91414,1509,19195.1387,26441.0645,3.48978759774,-1.33350234178,0,0,
3018,3018,1.5090000,91414,1509,19195.8574,26435.7754,3.15937977118,-6.16649340712,0,0,
3019,3019,1.5095000,91415,1510,19194.7773,26435.4141,1.46664889902,-4.31122970981,0,0,
3020,3020,1.5100000,91415,1510,19195.498,26432.5312,1.77793715851,-2.81611964582,0,0,
3021,3021,1.5105000,91416,1511,19193.8145,26433.4922,-0.233790572033,0.288862532815,0,0,
3022,3022,1.5110000,91416,1511,19195.1387,26436.377,0.453181703512,2.84613187845,0,0,
3023,3023,1.5115000,91417,1512,19197.1816,26434.334,2.03583681585,1.21281449282,0,0,
3024,3024,1.5120000,91417,1512,19198.2637,26436.8574,2.04428184437,3.63710495403,0,0,
3025,3025,1.5125000,91418,1513,19195.1387,26436.1348,-2.06320328963,2.09987598559,0,0,
3026,3026,1.5130000,91418,1513,19196.459,26436.6172,-1.14768767871,2.61318334755,0,0,
3027,3027,1.5135000,91419,1514,19194.5371,26436.6172,-3.2456884942,1.71888431476,0,0,
3028,3028,1.5140000,91419,1514,19194.416,26438.1797,-2.42590878283,1.79440245414,0,0,
3029,3029,1.5145000,91420,1515,19195.2578,26442.8672,-2.10870011772,3.4894154981,0,0,
3030,3030,1.5150000,91420,1515,19195.377,26438.6621,-1.34544781951,-0.879376097429,0,0,
3031,3031,1.5155000,91421,1516,19197.3008,26438.4199,0.808498025006,-2.87620151933,0,0,
3032,3032,1.5160000,91421,1516,19196.8203,26435.1738,-0.570030462149,-4.67530278676,0,0,
3033,3033,1.5165000,91422,1517,19197.3008,26434.4531,-0.535742000433,-3.78470761901,0,0,
3034,3034,1.5170000,91422,1517,19195.9785,26433.373,-1.64298912339,-4.13261755609,0,0,
3035,3035,1.5175000,91423,1518,19194.2949,26434.5723,-2.39210260817,-2.05411604978,0,0,
3036,3036,1.5180000,91423,1518,19194.8965,26434.2129,-1.11814704417,-3.85098463798,0,0,
3037,3037,1.5185000,91424,1519,19196.0996,26430.3672,0.15453240385,-6.84784896373,0,0,
3038,3038,1.5190000,91424,1519,19195.377,26429.6465,-1.32111034325,-4.95498898774,0,0,
3039,3039,1.5195000,91425,1520,19194.0566,26433.7324,-1.57310133152,3.39748906293,0,0,
3040,3040,1.5200000,91425,1520,19192.1328,26434.0938,-4.29278279239,6.81796035593,0,0,
3041,3041,1.5205000,91426,1521,19195.8574,26430.248,-1.18211336153,3.26049773172,0,0,
3042,3042,1.5210000,91426,1521,19194.2949,26431.4473,-3.05544740702,4.68595662753,0,0,
3043,3043,1.5215000,91427,1522,19194.2949,26440.1016,-3.43039689959,12.2853057532,0,0,
3044,3044,1.5220000,91427,1522,19192.373,26445.3906,-5.10689294487,13.9062246693,0,0,
3045,3045,1.5225000,91428,1523,19193.0938,26442.748,-3.10186677752,8.36077119147,0,0,
3046,3046,1.5230000,91428,1523,19194.8965,26437.459,-1.42409520986,2.10743146705,0,0,
3047,3047,1.5235000,91429,1524,19196.5801,26433.1309,0.268249818625,-1.34518763797,0,0,
3048,3048,1.5240000,91429,1524,19193.9355,26423.3965,-1.68516929051,-9.46274452635,0,0,
3049,3049,1.5245000,91430,1525,19197.6621,26423.7559,0.482758078955,-6.80335293101,0,0,
3050,3050,1.5250000,91430,1525,19192.4941,26425.0781,-4.52175379784,-5.05429277826,0,0,
3051,3051,1.5255000,91431,1526,19190.8105,26435.7754,-4.77922230933,4.41540294363,0,0,
3052,3052,1.5260000,91431,1526,19192.0117,26439.2598,-3.00265509295,7.71285901529,0,0,
3053,3053,1.5265000,91432,1527,19189.127,26434.6934,-5.97590703142,1.15719995609,0,0,
3054,3054,1.5270000,91432,1527,19188.7676,26430.125,-4.71214047771,-2.5904959671,0,0,
3055,3055,1.5275000,91433,1528,19191.1699,26422.4316,-2.03348655437,-8.91286670334,0,0,
3056,3056,1.5280000,91433,1528,19196.2188,26415.5801,4.05874660634,-12.2141813995,0,0,
3057,3057,1.5285000,91434,1529,19196.2188,26415.2207,4.0084770223,-9.50534443267,0,0,
3058,3058,1.5290000,91434,1529,19196.8203,26422.5527,3.44334207997,-0.316707868582,0,0,
3059,3059,1.5295000,91435,1530,19193.0938,26430.248,-0.196583464598,7.9289458293,0,0,
3060,3060,1.5300000,91435,1530,19191.1699,26437.2188,-1.75364690778,15.8185141105,0,0,
3061,3061,1.5305000,91436,1531,19194.8965,26435.8965,1.75840119608,13.5536726505,0,0,
3062,3062,1.5310000,91436,1531,19196.5801,26438.9004,2.3213866098,13.4439788989,0,0,
3063,3063,1.5315000,91437,1532,19191.7715,26449.1172,-2.23955827053,19.9480001925,0,0,
3064,3064,1.5320000,91437,1532,19195.0176,26460.8984,0.444934078284,25.2964352839,0,0,
3065,3065,1.5325000,91438,1533,19192.4941,26452.7246,-1.88253415071,12.8285726158,0,0,
3066,3066,1.5330000,91438,1533,19191.291,26450.5605,-2.88367009156,7.73601246865,0,0,
3067,3067,1.5335000,91439,1534,19188.5254,26457.5312,-4.52103950223,10.1134195008,0,0,
3068,3068,1.5340000,91439,1534,19187.3242,26458.373,-3.95846931195,6.15120857884,0,0,
3069,3069,1.5345000,91440,1535,19192.6133,26458.9746,0.752966123243,1.31416165639,0,0,
3070,3070,1.5350000,91440,1535,19193.0938,26454.6484,1.64387581152,-4.0637389496,0,0,
3071,3071,1.5355000,91441,1536,19190.0879,26451.041,-0.69169854096,-9.87654660763,0,0,
3072,3072,1.5360000,91441,1536,19194.1758,26439.8613,2.67187251412,-18.3730932753,0,0,
3073,3073,1.5365000,91442,1537,19190.8105,26443.2285,-0.513147426524,-13.4978865368,0,0,
3074,3074,1.5370000,91442,1537,19186.6035,26443.4688,-3.15769604696,-12.5627015323,0,0,
3075,3075,1.5375000,91443,1538,19187.3242,26438.6621,-0.826989565603,-15.7576173682,0,0,
3076,3076,1.5380000,91443,1538,19190.3301,26438.1797,2.56650267327,-16.1589311517,0,0,
3077,3077,1.5385000,91444,1539,19187.5645,26439.8613,0.337907397546,-12.9847121625,0,0,
3078,3078,1.5390000,91444,1539,19188.5254,26447.7969,1.15395152536,-4.41545564897,0,0,
3079,3079,1.5395000,91445,1540,19186.3633,26452.6035,0.524182568914,1.44799087208,0,0,
3080,3080,1.5400000,91445,1540,19184.9199,26447.6738,-0.907655203545,-1.35562170948,0,0,
3081,3081,1.5405000,91446,1541,19185.1602,26447.1953,-1.03834230548,-1.59369753265,0,0,
3082,3082,1.5410000,91446,1541,19182.5156,26443.2285,-2.63611928768,-5.23022926009,0,0,
3083,3083,1.5415000,91447,1542,19188.6465,26440.2246,2.84433244044,-8.11961389492,0,0,
3084,3084,1.5420000,91447,1542,19190.0879,26440.2246,3.86086215895,-8.55212254931,0,0,
3085,3085,1.5425000,91448,1543,19193.5742,26439.502,6.74048444197,-8.14912173522,0,0,
3086,3086,1.5430000,91448,1543,19193.8145,26431.6875,5.4615833094,-12.5128004354,0,0,
3087,3087,1.5435000,91449,1544,19188.0449,26424.3574,-0.150544571701,-14.8213902234,0,0,
3088,3088,1.5440000,91449,1544,19184.6797,26430.8457,-1.8492579663,-5.1092573629,0,0,
3089,3089,1.5445000,91450,1545,19188.6465,26438.4199,0.567627125234,2.76319988567,0,0,
3090,3090,1.5450000,91450,1545,19182.0352,26442.3848,-4.19311600435,4.98316799335,0,0,
3091,3091,1.5455000,91451,1546,19181.6738,26453.5645,-2.75840419689,11.3005374319,0,0,
3092,3092,1.5460000,91451,1546,19182.7559,26455.0078,-1.18237390008,10.7857992793,0,0,
3093,3093,1.5465000,91452,1547,19180.2324,26461.5,-3.03020815214,13.5229800768,0,0,
3094,3094,1.5470000,91452,1547,19180.5918,26458.8535,-1.33161660433,9.32956805246,0,0,
3095,3095,1.5475000,91453,1548,19179.752,26450.5605,-1.8594869187,1.05576938085,0,0,
3096,3096,1.5480000,91453,1548,19183.5977,26448.6387,2.52070325649,0.0892199990263,0,0,
3097,3097,1.5485000,91454,1549,19178.9102,26449.8379,-0.659838146376,0.632849839673,0,0,
3098,3098,1.5490000,91454,1549,19175.9043,26449.5996,-2.65235348133,-0.911360155289,0,0,
3099,3099,1.5495000,91455,1550,19174.7031,26454.6484,-1.69909170894,2.46665503083,0,0,
3100,3100,1.5500000,91455,1550,19179.3906,26454.8887,3.52234594105,2.94009861668,0,0,
3101,3101,1.5505000,91456,1551,19182.877,26450.6797,5.93260723111,-0.258587398379,0,0,
3102,3102,1.5510000,91456,1551,19184.1992,26449.8379,5.91531939379,-2.02027229676,0,0,
3103,3103,1.5515000,91457,1552,19179.6309,26453.5645,2.34230669998,-0.0452057966437,0,0,
3104,3104,1.5520000,91457,1552,19181.4355,26456.4512,3.11002540692,0.0684379876772,0,0,
3105,3105,1.5525000,91458,1553,19181.1934,26451.2812,3.1195079463,-3.12125392595,0,0,
3106,3106,1.5530000,91458,1553,19184.0801,26455.6094,5.19491895178,1.41222794111,0,0,
3107,3107,1.5535000,91459,1554,19181.6738,26452.4844,3.04729050839,-2.94548609221,0,0,
3108,3108,1.5540000,91459,1554,19180.2324,26454.6484,2.19063461054,-1.57688523052,0,0,
3109,3109,1.5545000,91460,1555,19178.1895,26455.6094,-0.941441199239,-2.29100357019,0,0,
3110,3110,1.5550000,91460,1555,19181.4355,26452.8438,2.38423963168,-2.86071785863,0,0,
3111,3111,1.5555000,91461,1556,19180.834,26451.8828,2.30027774351,-3.47703242163,0,0,
3112,3112,1.5560000,91461,1556,19180.2324,26454.5254,0.613197882486,2.05180368936,0,0,
3113,3113,1.5565000,91462,1557,19179.752,26452.123,0.679759131369,-0.161034168305,0,0,
3114,3114,1.5570000,91462,1557,19178.3086,26452.4844,0.522824760173,0.346021831855,0,0,
3115,3115,1.5575000,91463,1558,19174.7031,26450.4395,-1.85610014031,-0.347885500478,0,0,
3116,3116,1.5580000,91463,1558,19179.5117,26444.5488,2.37089907871,-5.89512736401,0,0,
3117,3117,1.5585000,91464,1559,19178.0684,26441.1855,1.39961782052,-7.3128217479,0,0,
3118,3118,1.5590000,91464,1559,19180.2324,26442.3848,2.5395365247,-4.97732068784,0,0,
3119,3119,1.5595000,91465,1560,19176.3848,26444.4297,0.0346769089794,-0.568567107979,0,0,
3120,3120,1.5600000,91465,1560,19177.3477,26441.1855,0.545654762084,0.733224958785,0,0,
3121,3121,1.5605000,91466,1561,19178.4297,26438.9004,0.437616144629,0.660817255018,0,0,
3122,3122,1.5610000,91466,1561,19178.4297,26441.7871,0.538706119508,4.92044557834,0,0,
3123,3123,1.5615000,91467,1562,19179.752,26436.377,-0.106636440038,0.848659815107,0,0,
3124,3124,1.5620000,91467,1562,19180.834,26436.377,0.254119691092,0.978818533281,0,0,
3125,3125,1.5625000,91468,1563,19183.5977,26440.9453,1.89788731875,5.88435775885,0,0,
3126,3126,1.5630000,91468,1563,19183.959,26435.8965,1.05966816688,3.89897869261,0,0,
3127,3127,1.5635000,91469,1564,19186.123,26433.373,3.04622313174,4.68627446067,0,0,
3128,3128,1.5640000,91469,1564,19189.248,26436.377,5.59748442707,7.55949740427,0,0,
3129,3129,1.5645000,91470,1565,19186.2422,26439.1406,-0.394098587377,8.64766765332,0,0,
3130,3130,1.5650000,91470,1565,19181.916,26448.7578,-3.14453140481,14.5667083051,0,0,
3131,3131,1.5655000,91471,1566,19179.1504,26462.3418,-5.02123465999,20.105043288,0,0,
3132,3132,1.5660000,91471,1566,19182.1562,26455.3691,-2.72352423235,11.1565219461,0,0,
3133,3133,1.5665000,91472,1567,19177.4668,26451.1621,-6.68382699301,4.56453791859,0,0,
3134,3134,1.5670000,91472,1567,19177.4668,26451.4004,-5.86084489081,5.23204042119,0,0,
3135,3135,1.5675000,91473,1568,19178.3086,26444.791,-5.02951205523,0.936398290626,0,0,
3136,3136,1.5680000,91473,1568,19177.2285,26442.2656,-5.84671709626,0.152339608818,0,0,
3137,3137,1.5685000,91474,1569,19182.0352,26444.5488,-0.120221740069,1.91611704758,0,0,
3138,3138,1.5690000,91474,1569,19179.1504,26449.8379,-2.67916371939,5.28656569893,0,0,
3139,3139,1.5695000,91475,1570,19177.5879,26449.4785,-3.13747445779,2.71453178249,0,0,
3140,3140,1.5700000,91475,1570,19178.791,26455.9688,-2.49482828378,8.19840694517,0,0,
3141,3141,1.5705000,91476,1571,19179.9922,26464.3828,-2.37627225383,14.7203344184,0,0,
3142,3142,1.5710000,91476,1571,19181.7949,26466.5469,-1.50577595297,12.4835849016,0,0,
3143,3143,1.5715000,91477,1572,19180.834,26469.9141,-1.02730431875,10.2856728132,0,0,
3144,3144,1.5720000,91477,1572,19181.1934,26475.6816,-1.78512528639,9.6213992476,0,0,
3145,3145,1.5725000,91478,1573,19182.3965,26478.0859,-0.48801671005,9.91548811089,0,0,
3146,3146,1.5730000,91478,1573,19185.7617,26476.0449,1.46197380519,4.15161192714,0,0,
3147,3147,1.5735000,91479,1574,19186.6035,26482.7754,2.26019222155,5.96816961735,0,0,
3148,3148,1.5740000,91479,1574,19187.6855,26486.623,2.99675809526,4.35107449927,0,0,
3149,3149,1.5745000,91480,1575,19184.5605,26489.5059,-1.30249633736,1.46159036764,0,0,
3150,3150,1.5750000,91480,1575,19182.877,26483.4941,-3.21166912469,-5.32340330846,0,0,
3151,3151,1.5755000,91481,1576,19182.877,26477.125,-2.39166182571,-12.8253527152,0,0,
3152,3152,1.5760000,91481,1576,19184.1992,26475.8027,-1.87277805261,-12.9333996226,0,0,
3153,3153,1.5765000,91482,1577,19183.959,26471.7168,-1.62886715086,-16.4116955131,0,0,
3154,3154,1.5770000,91482,1577,19187.9258,26472.9199,2.61169341825,-15.2378151747,0,0,
3155,3155,1.5775000,91483,1578,19189.0059,26465.3457,3.60207475529,-20.1842683897,0,0,
3156,3156,1.5780000,91483,1578,19195.1387,26440.7031,6.46956531639,-38.5474776912,0,0,
3157,3157,1.5785000,91484,1579,19193.4551,26427.1191,3.93509892447,-43.4622652293,0,0,
3158,3158,1.5790000,91484,1579,19196.8203,26427.6016,4.51602292877,-36.3117223287,0,0,
3159,3159,1.5795000,91485,1580,19194.6562,26436.0156,2.58182667569,-22.2261349535,0,0,
3160,3160,1.5800000,91485,1580,19196.3398,26441.0645,2.18897911767,-10.7082816205,0,0,
3161,3161,1.5805000,91486,1581,19198.0215,26439.0215,1.30525857081,-8.5895895988,0,0,
3162,3162,1.5810000,91486,1581,19195.9785,26443.4688,-1.42517867245,-2.1878357562,0,0,
3163,3163,1.5815000,91487,1582,19197.7832,26444.0703,-2.14670531302,0.726146929209,0,0,
3164,3164,1.5820000,91487,1582,19195.9785,26444.4297,-4.71292432331,1.25108479962,0,0,
3165,3165,1.5825000,91488,1583,19192.7324,26446.834,-8.119468321,3.48013317053,0,0,
3166,3166,1.5830000,91488,1583,19188.0449,26449.1172,-11.59705183,8.2551575503,0,0,
3167,3167,1.5835000,91489,1584,19186.9629,26447.4355,-10.5409581127,8.6852063808,0,0,
3168,3168,1.5840000,91489,1584,19189.6074,26453.9277,-6.39088255205,12.8634238525,0,0,
3169,3169,1.5845000,91490,1585,19190.9316,26455.248,-5.29176843912,11.1524418966,0,0,
3170,3170,1.5850000,91490,1585,19192.8535,26453.5645,-1.04031807156,5.77790043899,0,0,
3171,3171,1.5855000,91491,1586,19195.6191,26452.4844,2.11536193938,-0.487214630497,0,0,
3172,3172,1.5860000,91491,1586,19196.5801,26448.5176,1.5313057912,-1.57458995672,0,0,
3173,3173,1.5865000,91492,1587,19195.9785,26451.8828,1.37579289111,1.98599971875,0,0,
3174,3174,1.5870000,91492,1587,19191.7715,26453.5645,-2.30789565301,4.7669903128,0,0,
3175,3175,1.5875000,91493,1588,19188.166,26455.127,-5.30592630897,8.6356090107,0,0,
3176,3176,1.5880000,91493,1588,19185.7617,26463.1816,-6.28127598751,15.7112375083,0,0,
3177,3177,1.5885000,91494,1589,19186.3633,26468.7109,-4.18911902393,17.1256902008,0,0,
3178,3178,1.5890000,91494,1589,19181.7949,26466.0684,-5.99980016723,10.5251040236,0,0,
3179,3179,1.5895000,91495,1590,19177.4668,26464.8652,-6.87157091165,6.61428614897,0,0,
3180,3180,1.5900000,91495,1590,19180.1113,26466.666,-3.17665622007,6.30919143268,0,0,
3181,3181,1.5905000,91496,1591,19180.1113,26462.9395,-2.50478583198,1.77234506135,0,0,
3182,3182,1.5910000,91496,1591,19182.0352,26460.2969,-0.142843058346,-1.68017278422,0,0,
3183,3183,1.5915000,91497,1592,19186.123,26458.9746,5.65657394424,-4.38347109578,0,0,
3184,3184,1.5920000,91497,1592,19190.9316,26452.4844,8.92070186403,-11.4336916319,0,0,
3185,3185,1.5925000,91498,1593,19195.377,26451.8828,11.9944771107,-8.48871185277,0,0,
3186,3186,1.5930000,91498,1593,19196.5801,26456.8105,10.6865387413,-2.38837900065,0,0,
3187,3187,1.5935000,91499,1594,19198.502,26467.2676,11.5323259439,5.31003457838,0,0,
3188,3188,1.5940000,91499,1594,19195.2578,26467.8691,7.82020255712,3.58713824816,0,0,
3189,3189,1.5945000,91500,1595,19195.498,26465.9453,7.1040666413,-0.150993390583,0,0,
3190,3190,1.5950000,91500,1595,19193.334,26458.373,4.5665608384,-3.88589378088,0,0,
3191,3191,1.5955000,91501,1596,19194.416,26453.5645,5.57462658648,-5.8244268589,0,0,
3192,3192,1.5960000,91501,1596,19194.5371,26443.709,4.33519099853,-10.6953733562,0,0,
3193,3193,1.5965000,91502,1597,19191.1699,26431.4473,1.57795905632,-16.8128336416,0,0,
3194,3194,1.5970000,91502,1597,19192.252,26430.9688,2.7600736618,-13.0511665388,0,0,
3195,3195,1.5975000,91503,1598,19192.8535,26432.5312,3.75308646051,-5.76211692834,0,0,
3196,3196,1.5980000,91503,1598,19198.8633,26430.7266,6.51098943916,-0.317634365852,0,0,
3197,3197,1.5985000,91504,1599,19195.7383,26434.8145,3.82978353928,7.28867914529,0,0,
3198,3198,1.5990000,91504,1599,19193.4551,26442.627,0.399181669961,13.1732273134,0,0,
3199,3199,1.5995000,91505,1600,19195.377,26444.5488,3.68036002757,12.6128840379,0,0,
3200,3200,1.6000000,91505,1600,19193.6953,26437.6973,1.25612715329,7.36757748085,0,0,
3201,3201,1.6005000,91506,1601,19194.416,26432.2891,0.848215778935,4.01788001396,0,0,
3202,3202,1.6010000,91506,1601,19189.9688,26442.8672,-2.19705114817,12.4714410972,0,0,
3203,3203,1.6015000,91507,1602,19191.8926,26444.9121,-1.36897313348,13.3869486346,0,0,
3204,3204,1.6020000,91507,1602,19195.377,26452.9629,1.92087537351,17.3828468094,0,0,
3205,3205,1.6025000,91508,1603,19194.5371,26464.3828,1.10025177059,22.672346123,0,0,
3206,3206,1.6030000,91508,1603,19190.8105,26480.4922,-1.43605455112,32.6359953193,0,0,
3207,3207,1.6035000,91509,1604,19189.3672,26487.9434,-1.61574210972,33.4469465848,0,0,
3208,3208,1.6040000,91509,1604,19189.127,26483.9766,-1.29555148711,20.612586247,0,0,
3209,3209,1.6045000,91510,1605,19190.3301,26467.9902,-0.669643700395,0.293997516156,0,0,
3210,3210,1.6050000,91510,1605,19190.9316,26464.5059,1.46992683569,-6.80257058789,0,0,
3211,3211,1.6055000,91511,1606,19191.5312,26462.2207,2.24281438858,-13.5769390536,0,0,
3212,3212,1.6060000,91511,1606,19189.4883,26464.5059,-0.318701738274,-9.83485152098,0,0,
3213,3213,1.6065000,91512,1607,19191.8926,26465.5859,2.72782437408,-10.221672684,0,0,
3214,3214,1.6070000,91512,1607,19193.4551,26469.0723,4.5164912252,-7.28273899969,0,0,
3215,3215,1.6075000,91513,1608,19191.8926,26472.3184,2.76216865316,-3.70544948623,0,0,
3216,3216,1.6080000,91513,1608,19194.7773,26474.2402,4.91726001702,-3.95764502694,0,0,
3217,3217,1.6085000,91514,1609,19194.8965,26475.0801,4.02385993827,-6.25332744,0,0,
3218,3218,1.6090000,91514,1609,19187.5645,26473.8809,-1.54033932154,-9.08237198455,0,0,
3219,3219,1.6095000,91515,1610,19196.7012,26471.1152,7.35917383179,-12.4615915283,0,0,
3220,3220,1.6100000,91515,1610,19199.2246,26465.1035,6.69442706683,-17.7199996269,0,0,
3221,3221,1.6105000,91516,1611,19200.3066,26463.9043,4.97506190871,-16.6762017736,0,0,
3222,3222,1.6110000,91516,1611,19197.3008,26463.9043,-0.0925562170614,-15.3017496602,0,0,
3223,3223,1.6115000,91517,1612,19196.7012,26462.7012,-1.02730987368,-15.9502492802,0,0,
3224,3224,1.6120000,91517,1612,19195.377,26461.7402,-4.1002812891,-15.7912802741,0,0,
3225,3225,1.6125000,91518,1613,19199.9453,26464.9844,-1.09735163666,-10.0702172517,0,0,
3226,3226,1.6130000,91518,1613,19202.2285,26461.8594,-0.845220890368,-12.0483539155,0,0,
3227,3227,1.6135000,91519,1614,19199.2246,26457.6543,-3.91291358089,-16.5471585764,0,0,
3228,3228,1.6140000,91519,1614,19195.9785,26458.7344,-5.76560783034,-13.8322667492,0,0,
3229,3229,1.6145000,91520,1615,19195.7383,26462.7012,-5.70270225139,-8.7867705413,0,0,
3230,3230,1.6150000,91520,1615,19195.8574,26469.0723,-4.85785541121,1.39875760584,0,0,
3231,3231,1.6155000,91521,1616,19200.666,26470.875,-0.512868451278,4.48372498311,0,0,
3232,3232,1.6160000,91521,1616,19201.1465,26469.9141,-1.35364704031,6.01366539968,0,0,
3233,3233,1.6165000,91522,1617,19199.9453,26462.8203,-1.96830792025,2.20954879815,0,0,
3234,3234,1.6170000,91522,1617,19199.1035,26459.8145,-3.07420501449,-0.460510451811,0,0,
3235,3235,1.6175000,91523,1618,19202.8301,26450.8027,0.157444603725,-5.90953495447,0,0,
3236,3236,1.6180000,91523,1618,19201.6289,26451.8828,-4.03339212188,0.230715239247,0,0,
3237,3237,1.6185000,91524,1619,19202.2285,26453.8047,-2.38212126861,3.64870667831,0,0,
3238,3238,1.6190000,91524,1619,19201.2676,26454.2871,-3.96288823317,2.09352450813,0,0,
3239,3239,1.6195000,91525,1620,19198.7441,26449.2363,-5.05010951757,-2.89888382665,0,0,
3240,3240,1.6200000,91525,1620,19199.7051,26446.834,-4.13948286359,-1.23880859147,0,0,
3241,3241,1.6205000,91526,1621,19196.8203,26450.0801,-7.15761835392,4.35592200137,0,0,
3242,3242,1.6210000,91526,1621,19200.3066,26448.2754,-2.33824583679,0.805139225246,0,0,
3243,3243,1.6215000,91527,1622,19197.9023,26451.1621,-5.75933010466,4.16517431071,0,0,
3244,3244,1.6220000,91527,1622,19198.623,26457.6543,-5.10199282264,7.73362951196,0,0,
3245,3245,1.6225000,91528,1623,19193.0938,26457.1719,-8.77191245581,4.14063142548,0,0,
3246,3246,1.6230000,91528,1623,19191.5312,26456.3301,-7.51278369108,2.13354274451,0,0,
3247,3247,1.6235000,91529,1624,19195.1387,26452.2422,-2.5706398182,-0.203695982977,0,0,
3248,3248,1.6240000,91529,1624,19191.8926,26449.2363,-4.68905018182,-1.99586156151,0,0,
3249,3249,1.6245000,91530,1625,19195.9785,26453.5645,-1.2777126965,4.80128093451,0,0,
3250,3250,1.6250000,91530,1625,19196.459,26449.3594,0.371058911704,0.828845427642,0,0,
3251,3251,1.6255000,91531,1626,19199.1035,26462.5801,2.71294109203,9.96262550793,0,0,
3252,3252,1.6260000,91531,1626,19197.0605,26472.1973,0.407550050252,17.8318166011,0,0,
3253,3253,1.6265000,91532,1627,19198.2637,26478.5684,1.64761653584,19.4812596784,0,0,
3254,3254,1.6270000,91532,1627,19197.1816,26486.9824,0.981678326642,22.6972055711,0,0,
3255,3255,1.6275000,91533,1628,19199.9453,26482.7754,3.59077689369,15.8268576119,0,0,
3256,3256,1.6280000,91533,1628,19199.8262,26480.0098,2.61469223749,9.76566910978,0,0,
3257,3257,1.6285000,91534,1629,19199.584,26472.4375,1.91820928482,0.0603873285272,0,0,
3258,3258,1.6290000,91534,1629,19198.623,26473.7598,2.97526950648,0.267282985931,0,0,
3259,3259,1.6295000,91535,1630,19200.666,26470.3926,3.5634316032,-3.02923885294,0,0,
3260,3260,1.6300000,91535,1630,19199.584,26459.2168,0.700106652989,-11.4381521009,0,0,
3261,3261,1.6305000,91536,1631,19201.6289,26455.127,1.26750291871,-12.1503591915,0,0,
3262,3262,1.6310000,91536,1631,19207.2773,26458.0137,5.08302430781,-7.59084451903,0,0,
3263,3263,1.6315000,91537,1632,19202.709,26460.0566,0.420358047652,-5.05281966843,0,0,
3264,3264,1.6320000,91537,1632,19204.0332,26459.4551,0.168626611151,-4.88838081723,0,0,
3265,3265,1.6325000,91538,1633,19203.0703,26464.0234,-2.29371672353,0.367865464843,0,0,
3266,3266,1.6330000,91538,1633,19202.8301,26470.3926,-3.49679300089,5.80643483089,0,0,
3267,3267,1.6335000,91539,1634,19201.2676,26470.2734,-3.76357314308,3.21274843063,0,0,
3268,3268,1.6340000,91539,1634,19201.8691,26477.0059,-1.48305002838,7.08485218554,0,0,
3269,3269,1.6345000,91540,1635,19200.9082,26476.7656,-2.10088269906,4.13359701178,0,0,
3270,3270,1.6350000,91540,1635,19204.7539,26467.3887,1.61969642954,-2.93089608522,0,0,
3271,3271,1.6355000,91541,1636,19207.3984,26461.7402,2.72299755204,-5.95432233038,0,0,
3272,3272,1.6360000,91541,1636,19204.5137,26455.9688,-0.820335983337,-6.85537708499,0,0,
3273,3273,1.6365000,91542,1637,19202.709,26451.1621,-1.3496761884,-5.65522051933,0,0,
3274,3274,1.6370000,91542,1637,19205.8359,26453.4453,1.46882368335,-1.82839668073,0,0,
3275,3275,1.6375000,91543,1638,19205.9551,26459.3359,0.885802541844,6.37135609235,0,0,
3276,3276,1.6380000,91543,1638,19200.5469,26469.0723,-5.42863989497,16.0411144048,0,0,
3277,3277,1.6385000,91544,1639,19200.5469,26466.9082,-3.49912649039,11.9596165215,0,0,
3278,3278,1.6390000,91544,1639,19204.0332,26460.7793,-0.100506874606,2.95679808139,0,0,
3279,3279,1.6395000,91545,1640,19202.9512,26453.3262,0.359217628296,-3.9813371618,0,0,
3280,3280,1.6400000,91545,1640,19202.4707,26454.0469,-0.200408577246,-0.649907036644,0,0,
3281,3281,1.6405000,91546,1641,19204.0332,26447.916,1.10237847226,-4.74523107272,0,0,
3282,3282,1.6410000,91546,1641,19204.1523,26445.752,1.53739244046,-7.09948424828,0,0,
3283,3283,1.6415000,91547,1642,19204.9941,26446.9531,1.38664961709,-5.03572871162,0,0,
3284,3284,1.6420000,91547,1642,19208.2402,26449.2363,3.31767699037,-4.61868048203,0,0,
3285,3285,1.6425000,91548,1643,19206.5566,26456.0879,2.47501956163,0.0272432751475,0,0,
3286,3286,1.6430000,91548,1643,19212.6875,26461.0176,8.07191993887,3.21057161712,0,0,
3287,3287,1.6435000,91549,1644,19216.0527,26463.1816,9.02302779514,5.48099764937,0,0,
3288,3288,1.6440000,91549,1644,19212.5664,26467.0293,4.7010163082,7.66229412098,0,0,
3289,3289,1.6445000,91550,1645,19206.4355,26469.9141,-2.93389230086,9.00275123152,0,0,
3290,3290,1.6450000,91550,1645,19204.2734,26468.1094,-3.82734353492,5.44807453099,0,0,
3291,3291,1.6455000,91551,1646,19207.7598,26458.0137,-0.865386253665,-8.52307982177,0,0,
3292,3292,1.6460000,91551,1646,19208.3594,26449.959,-0.320578645435,-14.5524459731,0,0,
3293,3293,1.6465000,91552,1647,19209.2012,26458.7344,0.158418864972,-6.43109610828,0,0,
3294,3294,1.6470000,91552,1647,19202.8301,26476.0449,-4.73680136081,7.24150355129,0,0,
3295,3295,1.6475000,91553,1648,19206.4355,26478.3281,-1.12688416236,8.96895119588,0,0,
3296,3296,1.6480000,91553,1648,19209.4414,26480.1309,1.24783003057,8.43565405224,0,0,
3297,3297,1.6485000,91554,1649,19212.2051,26474.7207,3.1473084762,2.18737652652,0,0,
3298,3298,1.6490000,91554,1649,19213.2871,26462.4609,5.14893666884,-9.20689130768,0,0,
3299,3299,1.6495000,91555,1650,19216.0527,26451.4004,5.42198731863,-16.1990411402,0,0,
3300,3300,1.6500000,91555,1650,19212.4473,26447.7969,0.308761467423,-13.8226212663,0,0,
3301,3301,1.6505000,91556,1651,19212.5664,26442.627,-1.04364231158,-13.9553273352,0,0,
3302,3302,1.6510000,91556,1651,19211.125,26437.6973,-3.58097120256,-15.2917520251,0,0,
3303,3303,1.6515000,91557,1652,19212.9277,26430.6074,-0.77628898657,-18.0955177628,0,0,
3304,3304,1.6520000,91557,1652,19215.5723,26429.7656,0.219906468161,-14.3344933904,0,0,
3305,3305,1.6525000,91558,1653,19212.4473,26432.7715,-3.57990407387,-8.00677535167,0,0,
3306,3306,1.6530000,91558,1653,19213.8887,26438.6621,-2.88056900739,-0.8192338449,0,0,
3307,3307,1.6535000,91559,1654,19210.043,26450.3203,-4.94502454386,9.49687003691,0,0,
3308,3308,1.6540000,91559,1654,19210.1621,26463.541,-3.12017698444,18.2250963851,0,0,
3309,3309,1.6545000,91560,1655,19210.1621,26482.8965,-2.38973382178,30.7891659689,0,0,
3310,3310,1.6550000,91560,1655,19210.5234,26492.0312,-1.99680512457,35.7577591003,0,0,
3311,3311,1.6555000,91561,1656,19207.0371,26491.3105,-5.22602182331,30.1324573043,0,0,
3312,3312,1.6560000,91561,1656,19207.8789,26486.3809,-3.22847163768,22.756743175,0,0,
3313,3313,1.6565000,91562,1657,19210.6426,26485.2988,0.988245351455,19.9911200237,0,0,
3314,3314,1.6570000,91562,1657,19207.998,26481.9316,-1.37325136914,11.8456173783,0,0,
3315,3315,1.6575000,91563,1658,19211.7246,26482.7754,2.10326718002,9.41311393779,0,0,
3316,3316,1.6580000,91563,1658,19208.1191,26489.2656,-1.19779858078,11.0797327625,0,0,
3317,3317,1.6585000,91564,1659,19210.2832,26491.9082,1.98424327077,9.30912855535,0,0,
3318,3318,1.6590000,91564,1659,19205.2344,26490.9473,-2.66957542174,3.42418073331,0,0,
3319,3319,1.6595000,91565,1660,19206.4355,26485.1797,0.578192852871,-4.10825476302,0,0,
3320,3320,1.6600000,91565,1660,19206.918,26483.6172,1.41504209831,-6.47109471292,0,0,
3321,3321,1.6605000,91566,1661,19209.3223,26470.0332,3.38571921983,-18.0206763833,0,0,
3322,3322,1.6610000,91566,1661,19214.6113,26460.0566,7.94536981968,-26.7629341349,0,0,
3323,3323,1.6615000,91567,1662,19218.2168,26453.6855,9.15756478186,-30.1993246281,0,0,
3324,3324,1.6620000,91567,1662,19214.8496,26456.8105,4.06047760083,-26.7912606705,0,0,
3325,3325,1.6625000,91568,1663,19215.6934,26455.7285,5.39468272745,-27.3356844876,0,0,
3326,3326,1.6630000,91568,1663,19213.5293,26458.0137,2.680140837,-23.4800392239,0,0,
3327,3327,1.6635000,91569,1664,19213.6484,26452.002,1.82503796221,-24.580043854,0,0,
3328,3328,1.6640000,91569,1664,19211.2441,26455.7285,0.700403057039,-18.1117301991,0,0,
3329,3329,1.6645000,91570,1665,19213.8887,26458.0137,2.76079158332,-13.1022760767,0,0,
3330,3330,1.6650000,91570,1665,19210.7637,26462.0996,0.657102417073,-7.06188919364,0,0,
3331,3331,1.6655000,91571,1666,19214.25,26464.3828,2.60023327534,-5.51480843057,0,0,
3332,3332,1.6660000,91571,1666,19216.6543,26467.5078,4.08755477808,-1.04394340705,0,0,
3333,3333,1.6665000,91572,1667,19219.2988,26471.7168,5.21892651411,0.0468962259967,0,0,
3334,3334,1.6670000,91572,1667,19215.5723,26467.1484,2.4848917281,-7.36357897039,0,0,
3335,3335,1.6675000,91573,1668,19210.8848,26467.8691,-2.66707575572,-3.97004402708,0,0,
3336,3336,1.6680000,91573,1668,19212.4473,26473.8809,-1.70022722732,2.22023771799,0,0,
3337,3337,1.6685000,91574,1669,19216.5332,26478.0859,1.33008449366,7.13928964943,0,0,
3338,3338,1.6690000,91574,1669,19215.2109,26477.3652,1.14683789488,7.58847646475,0,0,
3339,3339,1.6695000,91575,1670,19214.0098,26474.2402,-1.27856245623,6.57852657274,0,0,
3340,3340,1.6700000,91575,1670,19213.4082,26468.3516,-1.75638081956,3.59267233718,0,0,
3341,3341,1.6705000,91576,1671,19216.6543,26470.0332,0.184043460711,6.69698798468,0,0,
3342,3342,1.6710000,91576,1671,19219.418,26470.6348,1.42365103718,6.83746243255,0,0,
3343,3343,1.6715000,91577,1672,19218.3359,26467.75,0.459020169037,4.14393451893,0,0,
3344,3344,1.6720000,91577,1672,19219.1777,26467.2676,-0.491806004659,3.29154791636,0,0,
3345,3345,1.6725000,91578,1673,19215.9316,26470.3926,-3.57325395816,4.72411285925,0,0,
3346,3346,1.6730000,91578,1673,19217.7363,26472.0762,-2.68272961927,3.80527712294,0,0,
3347,3347,1.6735000,91579,1674,19219.0566,26466.5469,-0.208582495901,-3.89955980846,0,0,
3348,3348,1.6740000,91579,1674,19217.9766,26463.7832,-0.681172144632,-8.56010589225,0,0,
3349,3349,1.6745000,91580,1675,19217.2559,26459.8145,-1.33633766025,-13.3081115336,0,0,
3350,3350,1.6750000,91580,1675,19215.8125,26463.3027,-2.9420326059,-6.12302594348,0,0,
3351,3351,1.6755000,91581,1676,19215.332,26465.4668,-3.19394756547,-0.29331696131,0,0,
3352,3352,1.6760000,91581,1676,19220.1387,26461.1387,0.965963999625,0.954020655697,0,0,
3353,3353,1.6765000,91582,1677,19220.0195,26461.2578,0.750088892565,5.51382759837,0,0,
3354,3354,1.6770000,91582,1677,19219.418,26462.9395,-0.0882931612967,8.00663603002,0,0,
3355,3355,1.6775000,91583,1678,19217.8555,26468.9512,-2.46692961964,13.6513093615,0,0,
3356,3356,1.6780000,91583,1678,19215.6934,26475.4434,-3.77963715638,17.0286339795,0,0,
3357,3357,1.6785000,91584,1679,19216.0527,26482.1738,-2.80154228238,20.6311023452,0,0,
3358,3358,1.6790000,91584,1679,19219.0566,26484.9375,0.221248686228,19.6453694694,0,0,
3359,3359,1.6795000,91585,1680,19218.9375,26492.6309,0.562000694979,24.3310348881,0,0,
3360,3360,1.6800000,91585,1680,19218.5762,26493.834,-0.252667840438,22.0436668401,0,0,
3361,3361,1.6805000,91586,1681,19214.9707,26492.752,-4.06370376075,19.9579554584,0,0,
3362,3362,1.6810000,91586,1681,19213.8887,26496.7188,-4.96163468235,19.2751385345,0,0,
3363,3363,1.6815000,91587,1682,19212.0859,26504.0488,-6.66364625126,20.6054813074,0,0,
3364,3364,1.6820000,91587,1682,19218.3359,26501.2871,-0.497744885504,9.88585332189,0,0,
3365,3365,1.6825000,91588,1683,19225.1875,26488.4238,5.93792194083,-6.78848546392,0,0,
3366,3366,1.6830000,91588,1683,19227.7129,26470.3926,6.98565749163,-24.0349347006,0,0,
3367,3367,1.6835000,91589,1684,19226.5098,26455.0078,3.92023526567,-32.3962701638,0,0,
3368,3368,1.6840000,91589,1684,19228.1934,26448.7578,5.38429769936,-33.5501923721,0,0,
3369,3369,1.6845000,91590,1685,19228.1934,26445.3906,3.36463737149,-30.7915092929,0,0,
3370,3370,1.6850000,91590,1685,19225.3086,26449.959,1.00860232949,-21.6249005926,0,0,
3371,3371,1.6855000,91591,1686,19225.1875,26461.7402,-1.14153917626,-9.2924338071,0,0,
3372,3372,1.6860000,91591,1686,19224.9473,26475.4434,-2.12495124431,4.173816514,0,0,
3373,3373,1.6865000,91592,1687,19229.3965,26477.7266,0.695539092815,2.84444085219,0,0,
3374,3374,1.6870000,91592,1687,19237.8105,26467.2676,8.42799322208,-8.06555171414,0,0,
3375,3375,1.6875000,91593,1688,19235.4043,26458.252,4.18493410042,-12.439381659,0,0,
3376,3376,1.6880000,91593,1688,19238.4102,26455.0078,3.98685449883,-12.6027122105,0,0,
3377,3377,1.6885000,91594,1689,19234.9238,26454.5254,-1.80352097181,-8.76551399241,0,0,
3378,3378,1.6890000,91594,1689,19232.8809,26454.5254,-3.02103217823,-3.75736561355,0,0,
