record_index,sequence,time_s,tick_ms,tick_elapsed_ms,ch1_raw_uV,ch2_raw_uV,ch1_filtered_uV,ch2_filtered_uV,sequence_gap_before,byte_offset_adjustment,imputed_fields
2000,2000,1.0000000,68708,1000,9587.83203,19195.1387,1.49691544948,-10.2582536231,0,0,
2001,2001,1.0005000,68708,1000,9586.51074,19192.4941,-1.42868182358,-11.644135658,0,0,
2002,2002,1.0010000,68709,1001,9584.70703,19195.6191,-4.32727615211,-5.88637105648,0,0,
2003,2003,1.0015000,68709,1001,9582.30273,19200.0664,-6.3212439169,1.18946145272,0,0,
2004,2004,1.0020000,68710,1002,9579.53809,19204.873,-7.95779751666,6.87594900135,0,0,
2005,2005,1.0025000,68710,1002,9584.58691,19200.9082,-1.97536323343,4.12008114167,0,0,
2006,2006,1.0030000,68711,1003,9584.82715,19197.7832,-3.21537505792,0.676159877016,0,0,
2007,2007,1.0035000,68711,1003,9583.86621,19193.334,-4.21963955185,-3.57120737217,0,0,
2008,2008,1.0040000,68712,1004,9580.37988,19198.2637,-8.03649131932,0.64807365808,0,0,
2009,2009,1.0045000,68712,1004,9578.33691,19201.6289,-9.93518322022,4.33929412094,0,0,
2010,2010,1.0050000,68713,1005,9579.29785,19204.3926,-9.39893508126,6.85886381011,0,0,
2011,2011,1.0055000,68713,1005,9578.81738,19197.541,-8.18954602893,-0.917078234011,0,0,
2012,2012,1.0060000,68714,1006,9576.65332,19197.0605,-7.60324051175,-4.59386047864,0,0,
2013,2013,1.0065000,68714,1006,9576.05273,19194.1758,-7.19268702719,-8.3856579256,0,0,
2014,2014,1.0070000,68715,1007,9575.81152,19192.9746,-6.68473783541,-8.30161805434,0,0,
2015,2015,1.0075000,68715,1007,9576.5332,19189.0059,-5.00454683177,-10.143786074,0,0,
2016,2016,1.0080000,68716,1008,9578.33691,19183.8379,-4.42582035353,-13.1126670159,0,0,
2017,2017,1.0085000,68716,1008,9578.45605,19184.0801,-4.5524392675,-8.83999153436,0,0,
2018,2018,1.0090000,68717,1009,9577.49512,19184.5605,-6.7992775658,-4.62927544925,0,0,
2019,2019,1.0095000,68717,1009,9578.57715,19181.7949,-6.32021500427,-5.40692726429,0,0,
2020,2020,1.0100000,68718,1010,9577.61523,19182.2754,-7.65956977926,-3.95832901682,0,0,
2021,2021,1.0105000,68718,1010,9578.69727,19182.5156,-6.27221123535,0.0479515936881,0,0,
2022,2022,1.0110000,68719,1011,9578.57715,19181.7949,-6.72389959844,0.0488313786431,0,0,
2023,2023,1.0115000,68719,1011,9577.25488,19182.1562,-7.53668856517,2.25280573932,0,0,
2024,2024,1.0120000,68720,1012,9576.17285,19187.9258,-8.86351092107,8.39129302144,0,0,
2025,2025,1.0125000,68720,1012,9575.09082,19187.084,-8.60109146572,8.12963278122,0,0,
2026,2026,1.0130000,68721,1013,9574.24902,19187.4434,-8.66036879886,8.56567129791,0,0,
2027,2027,1.0135000,68721,1013,9578.21582,19182.7559,-4.95991120157,4.82552957467,0,0,
2028,2028,1.0140000,68722,1014,9576.5332,19183.4785,-6.40912129598,5.00051079296,0,0,
2029,2029,1.0145000,68722,1014,9575.09082,19179.1504,-8.20498914784,1.01472312848,0,0,
2030,2030,1.0150000,68723,1015,9578.33691,19181.7949,-5.94261521433,3.82195368821,0,0,
2031,2031,1.0155000,68723,1015,9577.73535,19179.752,-5.78480097672,1.86270873781,0,0,
2032,2032,1.0160000,68724,1016,9578.33691,19175.9043,-5.07480014269,0.448235730721,0,0,
2033,2033,1.0165000,68724,1016,9582.54395,19169.0527,-0.982494421746,-2.5715802466,0,0,
2034,2034,1.0170000,68725,1017,9583.38477,19171.8184,-2.0267971668,3.43759057485,0,0,
2035,2035,1.0175000,68725,1017,9582.9043,19176.0254,-2.83587391334,7.35523184607,0,0,
2036,2036,1.0180000,68726,1018,9582.54395,19176.3848,-2.96768796156,6.08829659108,0,0,
2037,2037,1.0185000,68726,1018,9579.65918,19171.457,-5.05604542497,-0.267537194229,0,0,
2038,2038,1.0190000,68727,1019,9583.38477,19165.3262,-0.351235209452,-7.25482222366,0,0,
2039,2039,1.0195000,68727,1019,9585.06738,19166.4082,0.927399924786,-6.96492485149,0,0,
2040,2040,1.0200000,68728,1020,9584.94727,19167.1309,0.0440312321973,-5.13390321116,0,0,
2041,2041,1.0205000,68728,1020,9586.51074,19170.1348,0.715881793844,-2.1318795795,0,0,
2042,2042,1.0210000,68729,1021,9583.74512,19168.5723,-2.1347334275,-2.75030130051,0,0,
2043,2043,1.0215000,68729,1021,9582.54395,19163.8848,-2.25387878892,-4.95379587373,0,0,
2044,2044,1.0220000,68730,1022,9582.78418,19166.0488,-0.786998579466,-1.40359416117,0,0,
2045,2045,1.0225000,68730,1022,9582.54395,19163.2832,-0.39121597769,-1.16155128135,0,0,
2046,2046,1.0230000,68731,1023,9588.79395,19163.2832,4.39535920022,-0.312060868129,0,0,
2047,2047,1.0235000,68731,1023,9587.35156,19161,3.08002984047,-1.56787067678,0,0,
2048,2048,1.0240000,68732,1024,9584.10645,19159.5566,0.291719353982,-3.41088914763,0,0,
2049,2049,1.0245000,68732,1024,9583.14453,19156.4316,-0.263935489058,-4.66728186352,0,0,
2050,2050,1.0250000,68733,1025,9583.14453,19154.0293,-0.653187425398,-4.7863799588,0,0,
2051,2051,1.0255000,68733,1025,9581.46191,19152.2246,-0.462220694325,-4.21876763604,0,0,
2052,2052,1.0260000,68734,1026,9580.74023,19151.623,1.61025248753,-5.76546207547,0,0,
2053,2053,1.0265000,68734,1026,9582.42285,19150.9023,3.96862512234,-5.74755471571,0,0,
2054,2054,1.0270000,68735,1027,9579.65918,19151.5039,2.15652647655,-3.50552223991,0,0,
2055,2055,1.0275000,68735,1027,9581.10059,19151.623,4.38696829195,-1.40346120469,0,0,
2056,2056,1.0280000,68736,1028,9578.9375,19153.9082,1.83795265597,1.7103869696,0,0,
2057,2057,1.0285000,68736,1028,9577.375,19148.9785,1.26745837285,-0.879143085823,0,0,
2058,2058,1.0290000,68737,1029,9577.375,19149.7012,1.35160983873,1.90434259446,0,0,
2059,2059,1.0295000,68737,1029,9576.41309,19144.4121,0.902672988697,-1.50255588146,0,0,
2060,2060,1.0300000,68738,1030,9574.61035,19148.6191,0.2406237514,2.3893158559,0,0,
2061,2061,1.0305000,68738,1030,9575.09082,19151.623,1.95635999494,6.88927384985,0,0,
2062,2062,1.0310000,68739,1031,9573.52832,19150.4219,1.49320545476,5.18239245662,0,0,
2063,2063,1.0315000,68739,1031,9572.32617,19144.291,2.10367429363,0.602444619006,0,0,
2064,2064,1.0320000,68740,1032,9568.11914,19143.8105,-0.499767641556,0.602546085243,0,0,
2065,2065,1.0325000,68740,1032,9568.11914,19142.7285,1.93684590404,1.42755145478,0,0,
2066,2066,1.0330000,68741,1033,9567.03711,19142.4883,2.65046092357,2.42411331185,0,0,
2067,2067,1.0335000,68741,1033,9564.63379,19142.3691,1.28523294027,4.23266201961,0,0,
2068,2068,1.0340000,68742,1034,9566.91699,19139.6035,5.08996205221,1.73707586668,0,0,
2069,2069,1.0345000,68742,1034,9564.99414,19137.5605,4.05825237641,1.15929838633,0,0,
2070,2070,1.0350000,68743,1035,9565.11426,19141.8887,4.02295191883,5.00554637281,0,0,
2071,2071,1.0355000,68743,1035,9566.0752,19139.3633,6.4529779102,2.97630760693,0,0,
2072,2072,1.0360000,68744,1036,9564.03223,19141.2871,5.43099066075,6.49365348505,0,0,
2073,2073,1.0365000,68744,1036,9564.03223,19138.6426,6.12541627796,6.44615626193,0,0,
2074,2074,1.0370000,68745,1037,9562.83008,19138.4023,4.99556941487,7.13843221732,0,0,
2075,2075,1.0375000,68745,1037,9567.6377,19134.7949,10.0312753665,3.00072472658,0,0,
2076,2076,1.0380000,68746,1038,9565.59473,19134.0742,8.76637039911,1.63951111313,0,0,
2077,2077,1.0385000,68746,1038,9563.79199,19136.5996,8.29409988274,3.23682940986,0,0,
2078,2078,1.0390000,68747,1039,9559.58496,19141.0469,5.59313724266,5.46886240917,0,0,
2079,2079,1.0395000,68747,1039,9562.22949,19149.9414,8.57150015019,9.48685311871,0,0,
2080,2080,1.0400000,68748,1040,9558.38281,19150.7832,5.59986056844,7.44523842096,0,0,
2081,2081,1.0405000,68748,1040,9554.53613,19151.7441,2.92372293583,4.98630067233,0,0,
2082,2082,1.0410000,68749,1041,9553.5752,19148.9785,3.91244973366,1.06703500562,0,0,
2083,2083,1.0415000,68749,1041,9556.7002,19148.498,8.41839328669,0.770769265183,0,0,
2084,2084,1.0420000,68750,1042,9554.05566,19149.0996,7.32040084092,-0.0602907220658,0,0,
2085,2085,1.0425000,68750,1042,9552.97363,19142.248,7.33343867576,-4.94947343522,0,0,
2086,2086,1.0430000,68751,1043,9556.5791,19139.2441,9.31467945133,-7.49099794013,0,0,
2087,2087,1.0435000,68751,1043,9553.69434,19142.127,7.65822938205,-4.42988861327,0,0,
2088,2088,1.0440000,68752,1044,9554.65625,19143.4512,9.38876539225,-4.57566866596,0,0,
2089,2089,1.0445000,68752,1044,9555.1377,19147.6582,9.6877440657,-0.878883736375,0,0,
2090,2090,1.0450000,68753,1045,9553.21387,19145.7344,7.01901306271,-2.85868625148,0,0,
2091,2091,1.0455000,68753,1045,9550.93066,19148.498,6.12676295683,-0.738063255933,0,0,
2092,2092,1.0460000,68754,1046,9550.3291,19149.8223,7.30775996563,-2.904078032,0,0,
2093,2093,1.0465000,68754,1046,9553.33398,19145.9746,9.55913334536,-7.84436729597,0,0,
2094,2094,1.0470000,68755,1047,9552.37207,19142.7285,8.56120388052,-10.6540414676,0,0,
2095,2095,1.0475000,68755,1047,9551.65137,19144.5332,7.22996598006,-8.14756490197,0,0,
2096,2096,1.0480000,68756,1048,9552.61328,19146.2148,6.7366993836,-6.77986437576,0,0,
2097,2097,1.0485000,68756,1048,9549.96875,19148.8594,3.85480751427,-3.0550667561,0,0,
2098,2098,1.0490000,68757,1049,9549.24707,19148.0176,2.01911930506,-3.56947706401,0,0,
2099,2099,1.0495000,68757,1049,9548.40527,19148.0176,0.594168834746,-2.91813855241,0,0,
2100,2100,1.0500000,68758,1050,9545.52051,19148.0176,-1.96551248309,-4.79174241413,0,0,
2101,2101,1.0505000,68758,1050,9542.75684,19147.416,-4.14983570844,-4.63912073498,0,0,
2102,2102,1.0510000,68759,1051,9543.83887,19148.6191,-2.73861529362,-3.74757973683,0,0,
2103,2103,1.0515000,68759,1051,9545.6416,19151.623,-0.684755344405,-0.033763672275,0,0,
2104,2104,1.0520000,68760,1052,9545.16016,19151.0234,-1.111527958,-1.58727688843,0,0,
2105,2105,1.0525000,68760,1052,9538.91016,19149.0996,-6.1231810888,-2.74406115916,0,0,
2106,2106,1.0530000,68761,1053,9540.47266,19145.7344,-4.08432677044,-5.18525813496,0,0,
2107,2107,1.0535000,68761,1053,9539.99121,19141.6465,-4.70844135511,-6.88519922703,0,0,
2108,2108,1.0540000,68762,1054,9543.11719,19146.5762,-2.33191954276,-1.78398640084,0,0,
2109,2109,1.0545000,68762,1054,9541.31348,19142.4883,-4.40439278429,-4.30682794688,0,0,
2110,2110,1.0550000,68763,1055,9543.83887,19144.4121,-3.72123289672,-3.05921897994,0,0,
2111,2111,1.0555000,68763,1055,9542.15527,19147.0566,-5.42277876009,0.150969516214,0,0,
2112,2112,1.0560000,68764,1056,9539.27051,19146.0957,-7.77215735464,0.436475529524,0,0,
2113,2113,1.0565000,68764,1056,9537.70801,19144.291,-9.06416953575,1.53190525761,0,0,
2114,2114,1.0570000,68765,1057,9541.07324,19143.3301,-6.49615869258,1.87876556894,0,0,
2115,2115,1.0575000,68765,1057,9540.95312,19137.9199,-7.39927404625,-2.29287016121,0,0,
2116,2116,1.0580000,68766,1058,9539.03027,19140.6855,-8.2308611011,0.360929166911,0,0,
2117,2117,1.0585000,68766,1058,9538.42871,19143.209,-7.53054898678,1.94325418771,0,0,
2118,2118,1.0590000,68767,1059,9537.82812,19145.8535,-6.82583164565,2.63598869355,0,0,
2119,2119,1.0595000,68767,1059,9534.34277,19150.7832,-9.9987654328,3.36910878459,0,0,
2120,2120,1.0600000,68768,1060,9534.94336,19154.9902,-8.17392427412,5.8746844635,0,0,
2121,2121,1.0605000,68768,1060,9531.33691,19162.5625,-10.2689815878,9.98204929634,0,0,
2122,2122,1.0610000,68769,1061,9530.61621,19159.5566,-9.39075348351,6.22606349297,0,0,
2123,2123,1.0615000,68769,1061,9531.57715,19158.957,-7.59382280989,5.5916967015,0,0,
2124,2124,1.0620000,68770,1062,9533.98145,19151.5039,-3.97427921239,-1.75421984571,0,0,
2125,2125,1.0625000,68770,1062,9538.06836,19148.2598,-0.215139209383,-1.4592816676,0,0,
2126,2126,1.0630000,68771,1063,9536.74609,19153.5469,-3.785676233,3.73912679623,0,0,
2127,2127,1.0635000,68771,1063,9535.54395,19159.918,-3.83380001153,8.04210441872,0,0,
2128,2128,1.0640000,68772,1064,9530.13574,19165.207,-7.84758141409,9.69016258799,0,0,
2129,2129,1.0645000,68772,1064,9528.0918,19169.4141,-8.64593492053,10.6871685523,0,0,
2130,2130,1.0650000,68773,1065,9529.53418,19169.4141,-6.61475940934,8.95427300424,0,0,
2131,2131,1.0655000,68773,1065,9529.77441,19162.8027,-4.48739585584,1.26775568741,0,0,
2132,2132,1.0660000,68774,1066,9531.45801,19154.9902,-1.3272709181,-7.75602215062,0,0,
2133,2133,1.0665000,68774,1066,9538.30859,19153.7871,3.6021288792,-7.86694205014,0,0,
2134,2134,1.0670000,68775,1067,9532.89941,19161.3613,-1.30572055716,-0.320153739818,0,0,
2135,2135,1.0675000,68775,1067,9531.09668,19164.6055,-2.82366699083,1.90591244087,0,0,
2136,2136,1.0680000,68776,1068,9529.53418,19172.2988,-4.5821287184,6.76699941625,0,0,
2137,2137,1.0685000,68776,1068,9531.93848,19174.9434,-1.66705309148,7.73687824647,0,0,
2138,2138,1.0690000,68777,1069,9531.81738,19178.5488,-2.40872264694,9.14547661061,0,0,
2139,2139,1.0695000,68777,1069,9535.42383,19166.8887,0.242094348077,-2.05406654453,0,0,
2140,2140,1.0700000,68778,1070,9535.42383,19151.1426,0.0255970870333,-16.22251815,0,0,
2141,2141,1.0705000,68778,1070,9532.89941,19149.2207,-2.37627645537,-14.3679475668,0,0,
2142,2142,1.0710000,68779,1071,9531.57715,19143.5703,-3.89365259057,-16.4282379021,0,0,
2143,2143,1.0715000,68779,1071,9531.09668,19150.3027,-4.19964768959,-6.81076289163,0,0,
2144,2144,1.0720000,68780,1072,9533.98145,19149.0996,-1.41499412531,-5.93432607988,0,0,
2145,2145,1.0725000,68780,1072,9536.74609,19144.291,1.73400350253,-6.78150047824,0,0,
2146,2146,1.0730000,68781,1073,9535.90527,19141.6465,-0.169165962165,-5.54237669754,0,0,
2147,2147,1.0735000,68781,1073,9536.9873,19143.9316,-0.301581289124,0.372634973216,0,0,
2148,2148,1.0740000,68782,1074,9534.10156,19147.0566,-4.21602757973,3.69622985539,0,0,
2149,2149,1.0745000,68782,1074,9530.37598,19153.7871,-7.10881529932,11.2754188712,0,0,
2150,2150,1.0750000,68783,1075,9530.37598,19160.1582,-7.88141168856,14.6451777231,0,0,
2151,2151,1.0755000,68783,1075,9530.97656,19155.5918,-6.20995676377,9.4542868554,0,0,
2152,2152,1.0760000,68784,1076,9531.45801,19150.6621,-4.61593974283,5.94244556265,0,0,
2153,2153,1.0765000,68784,1076,9537.10645,19146.6953,0.330704564423,5.20926833223,0,0,
2154,2154,1.0770000,68785,1077,9538.18848,19148.0176,-0.495047250963,7.7471667385,0,0,
2155,2155,1.0775000,68785,1077,9536.50586,19161.4805,-2.90671611247,19.5166233636,0,0,
2156,2156,1.0780000,68786,1078,9538.66895,19170.0156,-0.3095796905,22.7806230755,0,0,
2157,2157,1.0785000,68786,1078,9536.74609,19165.5684,-1.47996889683,14.2239645375,0,0,
2158,2158,1.0790000,68787,1079,9536.74609,19163.6445,-0.716616598632,8.51378395546,0,0,
2159,2159,1.0795000,68787,1079,9539.75098,19164.7266,1.70442837298,4.4539830519,0,0,
2160,2160,1.0800000,68788,1080,9537.94824,19159.918,-0.0923055600514,-1.54688180888,0,0,
2161,2161,1.0805000,68788,1080,9537.82812,19147.416,0.371840929952,-13.5394821362,0,0,
2162,2162,1.0810000,68789,1081,9542.27539,19137.5605,4.09080997472,-17.7406652097,0,0,
2163,2163,1.0815000,68789,1081,9548.16504,19123.0156,7.63776405842,-24.469098879,0,0,
2164,2164,1.0820000,68790,1082,9551.77148,19125.9004,9.04596869382,-15.1388982451,0,0,
2165,2165,1.0825000,68790,1082,9553.81543,19128.0645,8.08777319292,-6.339258801,0,0,
2166,2166,1.0830000,68791,1083,9550.68945,19129.5059,2.18659850784,-2.60137008901,0,0,
2167,2167,1.0835000,68791,1083,9548.40527,19128.1855,0.253485210218,-2.41026496084,0,0,
2168,2168,1.0840000,68792,1084,9549.72754,19129.748,1.84908639057,-0.242231606327,0,0,
2169,2169,1.0845000,68792,1084,9552.01172,19129.3867,3.04803499301,0.820579604075,0,0,
2170,2170,1.0850000,68793,1085,9551.29102,19130.3496,0.784874320201,4.37650602088,0,0,
2171,2171,1.0855000,68793,1085,9553.93555,19133.7129,2.98393046739,9.65007613552,0,0,
2172,2172,1.0860000,68794,1086,9556.5791,19145.1328,4.67496665648,18.9994285799,0,0,
2173,2173,1.0865000,68794,1086,9562.46973,19166.6504,6.3351487164,34.5502282703,0,0,
2174,2174,1.0870000,68795,1087,9564.5127,19185.041,7.37338583719,42.7041710514,0,0,
2175,2175,1.0875000,68795,1087,9562.1084,19186.9629,3.53569511612,35.4820513313,0,0,
2176,2176,1.0880000,68796,1088,9563.43066,19178.5488,2.75807704905,19.4013443277,0,0,
2177,2177,1.0885000,68796,1088,9569.20117,19157.2734,5.87453865698,-2.58448443703,0,0,
2178,2178,1.0890000,68797,1089,9573.76855,19147.416,6.87414713503,-11.2983730063,0,0,
2179,2179,1.0895000,68797,1089,9573.4082,19142.7285,3.13555340342,-11.4052828738,0,0,
2180,2180,1.0900000,68798,1090,9574.61035,19141.4082,2.38348669169,-9.52010494524,0,0,
2181,2181,1.0905000,68798,1090,9574.9707,19138.5215,1.33007320368,-10.0582259675,0,0,
2182,2182,1.0910000,68799,1091,9579.41797,19134.1953,3.08230289783,-11.6445361754,0,0,
2183,2183,1.0915000,68799,1091,9573.64844,19132.3926,-3.8053053343,-12.0679048481,0,0,
2184,2184,1.0920000,68800,1092,9566.0752,19139.4844,-11.0725331173,-4.32960788975,0,0,
2185,2185,1.0925000,68800,1092,9569.56152,19154.9902,-6.96023197338,10.1593180441,0,0,
2186,2186,1.0930000,68801,1093,9577.61523,19150.7832,-0.395410576042,5.20517777447,0,0,
2187,2187,1.0935000,68801,1093,9582.18262,19148.6191,1.68289277673,2.39505001146,0,0,
2188,2188,1.0940000,68802,1094,9582.66309,19158.2363,0.225267535201,7.52706645336,0,0,
2189,2189,1.0945000,68802,1094,9581.82227,19164.4863,-1.17197847469,9.59565251449,0,0,
2190,2190,1.0950000,68803,1095,9582.54395,19160.0371,-2.86450277752,0.488670957645,0,0,
2191,2191,1.0955000,68803,1095,9581.70215,19155.8301,-4.18784296177,-4.15088932446,0,0,
2192,2192,1.0960000,68804,1096,9583.14453,19151.623,-3.10800157859,-7.08048733849,0,0,
2193,2193,1.0965000,68804,1096,9587.11133,19154.3887,-1.43710171888,-2.94547276451,0,0,
2194,2194,1.0970000,68805,1097,9585.78906,19159.3184,-4.43311575642,0.241283284542,0,0,
2195,2195,1.0975000,68805,1097,9592.52051,19167.6113,0.594874993535,3.34305815708,0,0,
2196,2196,1.0980000,68806,1098,9595.28516,19171.9395,1.92805082748,1.68079857382,0,0,
2197,2197,1.0985000,68806,1098,9599.49219,19172.1777,4.84172473822,-1.29245979243,0,0,
2198,2198,1.0990000,68807,1099,9598.16992,19168.8125,2.43760785049,-7.65504939299,0,0,
2199,2199,1.0995000,68807,1099,9598.16992,19165.5684,0.544224192289,-14.5894514916,0,0,
2200,2200,1.1000000,68808,1100,9600.33301,19168.2129,1.69055451792,-12.6848887106,0,0,
2201,2201,1.1005000,68808,1100,9599.49219,19166.6504,0.33717587128,-14.0071378043,0,0,
2202,2202,1.1010000,68809,1101,9601.1748,19168.8125,0.281424034736,-10.0015315162,0,0,
2203,2203,1.1015000,68809,1101,9596.96777,19172.2988,-5.13988804905,-4.90016780705,0,0,
2204,2204,1.1020000,68810,1102,9597.08789,19171.9395,-5.05537759447,-6.73453876524,0,0,
2205,2205,1.1025000,68810,1102,9599.01074,19173.502,-3.63286669577,-5.40763880681,0,0,
2206,2206,1.1030000,68811,1103,9599.6123,19172.7793,-3.19463606786,-8.50424608138,0,0,
2207,2207,1.1035000,68811,1103,9599.01074,19169.7754,-2.06935231312,-12.9704591843,0,0,
2208,2208,1.1040000,68812,1104,9605.26172,19157.3945,4.08806417945,-24.8477821004,0,0,
2209,2209,1.1045000,68812,1104,9606.58398,19146.5762,4.26055745263,-31.8404904477,0,0,
2210,2210,1.1050000,68813,1105,9610.43066,19142.6094,6.33004539968,-30.3697843986,0,0,
2211,2211,1.1055000,68813,1105,9611.63184,19146.334,6.31398483955,-22.4408212172,0,0,
2212,2212,1.1060000,68814,1106,9613.43555,19155.7109,6.72060125939,-13.4053531179,0,0,
2213,2213,1.1065000,68814,1106,9612.9541,19158.1152,2.84518693404,-12.948233043,0,0,
2214,2214,1.1070000,68815,1107,9612.47363,19161,2.71660428166,-12.2843693247,0,0,
2215,2215,1.1075000,68815,1107,9612.9541,19158.8359,3.39868482618,-12.4760825627,0,0,
2216,2216,1.1080000,68816,1108,9614.27637,19159.0762,3.53417135229,-9.55396979188,0,0,
2217,2217,1.1085000,68816,1108,9616.32031,19153.3066,3.67876305982,-8.17914561774,0,0,
2218,2218,1.1090000,68817,1109,9617.64258,19155.3496,3.09461919442,-2.49481679209,0,0,
2219,2219,1.1095000,68817,1109,9617.40234,19156.3125,1.8634849899,2.62959330736,0,0,
2220,2220,1.1100000,68818,1110,9618.84473,19161.9629,2.87400055719,9.36824795387,0,0,
2221,2221,1.1105000,68818,1110,9617.40234,19170.9766,1.76254555848,16.9885458454,0,0,
2222,2222,1.1110000,68819,1111,9619.92676,19176.1465,2.92544398562,19.9402513679,0,0,
2223,2223,1.1115000,68819,1111,9621.60938,19175.1836,4.89588981372,15.5855259753,0,0,
2224,2224,1.1120000,68820,1112,9623.17188,19176.2656,6.38373481235,12.6209206727,0,0,
2225,2225,1.1125000,68820,1112,9620.28711,19175.1836,2.77286602581,8.09941992116,0,0,
2226,2226,1.1130000,68821,1113,9620.28711,19172.1777,0.996201860852,5.71291792562,0,0,
2227,2227,1.1135000,68821,1113,9621.96973,19172.4199,1.21288222608,5.80912456773,0,0,
2228,2228,1.1140000,68822,1114,9621.84961,19170.8574,0.794720386882,0.899309362356,0,0,
2229,2229,1.1145000,68822,1114,9622.81152,19163.7637,2.25494604921,-6.15342316375,0,0,
2230,2230,1.1150000,68823,1115,9627.49902,19161.1191,4.69933109745,-7.71554046955,0,0,
2231,2231,1.1155000,68823,1115,9624.85449,19155.8301,1.94310066968,-8.77360860174,0,0,
2232,2232,1.1160000,68824,1116,9627.49902,19146.6953,3.77142679625,-11.7285408313,0,0,
2233,2233,1.1165000,68824,1116,9627.49902,19144.6523,1.60709091544,-8.45294680098,0,0,
2234,2234,1.1170000,68825,1117,9629.7832,19152.1055,2.46464251368,0.387131561606,0,0,
2235,2235,1.1175000,68825,1117,9626.29688,19155.7109,-2.18173415709,2.41646086482,0,0,
2236,2236,1.1180000,68826,1118,9629.66309,19158.2363,0.692732034827,3.38690080009,0,0,
2237,2237,1.1185000,68826,1118,9630.02344,19159.7988,0.903364106015,5.67048305203,0,0,
2238,2238,1.1190000,68827,1119,9633.26855,19159.5566,4.12868627916,5.9920311337,0,0,
2239,2239,1.1195000,68827,1119,9633.14844,19161.9629,2.92543287765,6.92276441651,0,0,
2240,2240,1.1200000,68828,1120,9631.58594,19164.2441,1.11254319083,8.72245633591,0,0,
2241,2241,1.1205000,68828,1120,9633.38965,19162.8027,2.95912036627,8.2118019581,0,0,
2242,2242,1.1210000,68829,1121,9636.875,19160.5195,4.50438361472,8.0564299681,0,0,
2243,2243,1.1215000,68829,1121,9635.43262,19163.8848,2.11618778576,12.8663093766,0,0,
2244,2244,1.1220000,68830,1122,9637.23535,19162.5625,2.68027689813,11.2606613624,0,0,
2245,2245,1.1225000,68830,1122,9638.31738,19162.082,1.97469027735,11.2483639502,0,0,
2246,2246,1.1230000,68831,1123,9639.39941,19161.9629,1.72920876404,9.98434016147,0,0,
2247,2247,1.1235000,68831,1123,9640.12012,19163.2832,2.64309666095,10.2783979701,0,0,
2248,2248,1.1240000,68832,1124,9640.48145,19161.4805,1.5570338601,8.74106375308,0,0,
2249,2249,1.1245000,68832,1124,9640.12012,19161.6016,0.192359542533,9.41692651892,0,0,
2250,2250,1.1250000,68833,1125,9640.96191,19164.2441,-0.480202966957,11.5311829353,0,0,
2251,2251,1.1255000,68833,1125,9641.20215,19163.6445,-0.712102887181,9.14347380682,0,0,
2252,2252,1.1260000,68834,1126,9640,19162.4434,-2.20560153088,3.79557494971,0,0,
2253,2253,1.1265000,68834,1126,9641.68262,19163.2832,-2.54194811607,1.06139396674,0,0,
2254,2254,1.1270000,68835,1127,9643.48633,19167.25,-0.349913640513,0.998705062679,0,0,
2255,2255,1.1275000,68835,1127,9640,19165.4473,-3.05618639607,-0.447027465439,0,0,
2256,2256,1.1280000,68836,1128,9642.88477,19166.1699,-1.10151461523,0.707114060609,0,0,
2257,2257,1.1285000,68836,1128,9645.28906,19164.8457,-0.501728457621,3.82767981717,0,0,
2258,2258,1.1290000,68837,1129,9644.80859,19166.8887,-2.36182694129,6.11657164821,0,0,
2259,2259,1.1295000,68837,1129,9643.84668,19166.1699,-3.60708395981,6.78765652071,0,0,
2260,2260,1.1300000,68838,1130,9644.92871,19167.6113,-2.73348579604,7.17658136574,0,0,
2261,2261,1.1305000,68838,1130,9646.49121,19168.2129,-0.861573568074,5.75438618228,0,0,
2262,2262,1.1310000,68839,1131,9641.44238,19167.6113,-6.3038831668,4.2647220089,0,0,
2263,2263,1.1315000,68839,1131,9642.4043,19171.0957,-4.26753262732,6.08108211557,0,0,
2264,2264,1.1320000,68840,1132,9641.32227,19173.502,-4.18883425761,5.4866191085,0,0,
2265,2265,1.1325000,68840,1132,9642.88477,19173.8613,-2.14379815644,3.39762480828,0,0,
2266,2266,1.1330000,68841,1133,9644.56738,19169.8945,-1.83197407034,0.739922656076,0,0,
2267,2267,1.1335000,68841,1133,9648.29395,19167.25,-0.0201804008989,-1.36717054096,0,0,
2268,2268,1.1340000,68842,1134,9648.05371,19170.4961,-0.852624496686,-0.812055104425,0,0,
2269,2269,1.1345000,68842,1134,9648.65527,19170.8574,-0.352905687749,-0.782391559451,0,0,
2270,2270,1.1350000,68843,1135,9647.09277,19176.0254,-3.73573003259,2.59166786262,0,0,
2271,2271,1.1355000,68843,1135,9646.25098,19175.7852,-3.6670117841,2.91434189114,0,0,
2272,2272,1.1360000,68844,1136,9651.05859,19177.1074,-0.0850519976649,5.48296164814,0,0,
2273,2273,1.1365000,68844,1136,9649.85645,19175.1836,-2.83069258546,3.21929951577,0,0,
2274,2274,1.1370000,68845,1137,9651.17871,19174.584,-2.77772660284,-0.666567999132,0,0,
2275,2275,1.1375000,68845,1137,9653.70312,19171.0957,-1.35190731947,-7.26962698973,0,0,
2276,2276,1.1380000,68846,1138,9655.26562,19172.2988,-1.3303402207,-8.49842223499,0,0,
2277,2277,1.1385000,68846,1138,9653.34277,19173.502,-3.41618253123,-7.51075217181,0,0,
2278,2278,1.1390000,68847,1139,9654.4248,19173.2598,-2.56066119807,-7.60558168854,0,0,
2279,2279,1.1395000,68847,1139,9653.22266,19173.0215,-3.97829756617,-9.23471086875,0,0,
2280,2280,1.1400000,68848,1140,9650.45801,19174.7031,-5.82597048008,-7.96042162793,0,0,
2281,2281,1.1405000,68848,1140,9652.8623,19171.3379,-3.15305801279,-9.44371257372,0,0,
2282,2282,1.1410000,68849,1141,9651.17871,19174.584,-5.5404242003,-4.28129203072,0,0,
2283,2283,1.1415000,68849,1141,9652.50098,19172.2988,-3.81442038626,-5.15438754171,0,0,
2284,2284,1.1420000,68850,1142,9653.34277,19174.584,-3.36969973361,-2.59599282929,0,0,
2285,2285,1.1425000,68850,1142,9655.02539,19175.5449,-2.5889862874,-1.17387025869,0,0,
2286,2286,1.1430000,68851,1143,9655.62598,19177.2285,-2.50897493765,-0.667050292711,0,0,
2287,2287,1.1435000,68851,1143,9658.03027,19175.3047,0.250956343696,-3.23349937747,0,0,
2288,2288,1.1440000,68852,1144,9653.82324,19171.3379,-3.98132486002,-5.72275173587,0,0,
2289,2289,1.1445000,68852,1144,9654.4248,19175.4238,-3.21206181106,-1.11360955392,0,0,
2290,2290,1.1450000,68853,1145,9654.4248,19176.0254,-3.63043280944,-0.913900805369,0,0,
2291,2291,1.1455000,68853,1145,9653.82324,19178.9102,-3.63778563267,0.563400375025,0,0,
2292,2292,1.1460000,68854,1146,9654.18457,19179.0293,-2.66075449573,-2.66152898267,0,0,
2293,2293,1.1465000,68854,1146,9655.38574,19175.6641,-2.78739009238,-8.41394719426,0,0,
2294,2294,1.1470000,68855,1147,9658.51172,19176.3848,0.570362491464,-10.4385549574,0,0,
2295,2295,1.1475000,68855,1147,9657.66992,19175.7852,0.795065486534,-9.41100690541,0,0,
2296,2296,1.1480000,68856,1148,9656.10742,19177.3477,-1.47979645175,-6.88348738191,0,0,
2297,2297,1.1485000,68856,1148,9659.23242,19181.1934,0.129574021547,0.506865788312,0,0,
2298,2298,1.1490000,68857,1149,9658.3916,19181.0742,-1.28072221991,0.40114836889,0,0,
2299,2299,1.1495000,68857,1149,9658.15137,19176.3848,-1.31270406428,-1.9916705736,0,0,
2300,2300,1.1500000,68858,1150,9656.8291,19179.0293,-2.3493706729,0.280297167383,0,0,
2301,2301,1.1505000,68858,1150,9656.8291,19174.4629,-1.52015787565,-4.28352383965,0,0,
2302,2302,1.1510000,68859,1151,9660.55469,19173.7402,2.01211690512,-3.95983554343,0,0,
2303,2303,1.1515000,68859,1151,9661.27637,19175.5449,2.60023627971,-2.36887756664,0,0,
2304,2304,1.1520000,68860,1152,9663.43945,19179.6309,4.5597960297,0.177388220483,0,0,
2305,2305,1.1525000,68860,1152,9662.47754,19177.709,2.94163656939,-2.10085086633,0,0,
2306,2306,1.1530000,68861,1153,9662.59863,19180.2324,1.29431103978,2.51973952809,0,0,
2307,2307,1.1535000,68861,1153,9662.71875,19178.9102,-0.45698683461,2.12888051823,0,0,
2308,2308,1.1540000,68862,1154,9662.2373,19178.5488,-0.930401384517,-0.358127847817,0,0,
2309,2309,1.1545000,68862,1154,9664.16113,19182.877,0.924005452402,3.47935792708,0,0,
2310,2310,1.1550000,68863,1155,9662.3584,19182.1562,-1.83680569429,1.28727797234,0,0,
2311,2311,1.1555000,68863,1155,9664.6416,19183.5977,0.892658489063,3.81586548234,0,0,
2312,2312,1.1560000,68864,1156,9663.43945,19182.3965,-1.49618884184,4.35453353251,0,0,
2313,2313,1.1565000,68864,1156,9665.4834,19186.6035,-0.363227036993,8.39959086429,0,0,
2314,2314,1.1570000,68865,1157,9663.7998,19181.7949,-2.67657320376,1.64884061673,0,0,
2315,2315,1.1575000,68865,1157,9667.8877,19184.1992,0.306587565867,1.62846955286,0,0,
2316,2316,1.1580000,68866,1158,9667.0459,19183.3574,-1.35713596225,-1.60292119341,0,0,
2317,2317,1.1585000,68866,1158,9662.83887,19182.3965,-4.20476686266,-2.75126448598,0,0,
2318,2318,1.1590000,68867,1159,9665.60352,19185.5215,-1.18829228148,0.0836865943543,0,0,
2319,2319,1.1595000,68867,1159,9665.84375,19182.3965,-0.580519206548,-3.95977694378,0,0,
2320,2320,1.1600000,68868,1160,9668.24805,19182.0352,2.36062297626,-4.47053312891,0,0,
2321,2321,1.1605000,68868,1160,9667.16602,19181.6738,0.98538414804,-2.77705998255,0,0,
2322,2322,1.1610000,68869,1161,9668.6084,19184.0801,1.58400815534,0.521069514156,0,0,
2323,2323,1.1615000,68869,1161,9667.64648,19181.1934,0.544414546225,-0.643483623123,0,0,
2324,2324,1.1620000,68870,1162,9668.96875,19183.2363,1.16633210045,1.30173539175,0,0,
2325,2325,1.1625000,68870,1162,9668.96875,19183.8379,0.23603088484,2.26442272064,0,0,
2326,2326,1.1630000,68871,1163,9671.25293,19181.6738,1.76843494405,-0.275465849313,0,0,
2327,2327,1.1635000,68871,1163,9672.09473,19183.4785,2.50545105961,1.47961666841,0,0,
2328,2328,1.1640000,68872,1164,9668.96875,19182.877,0.0957992632016,2.24158024203,0,0,
2329,2329,1.1645000,68872,1164,9668.00684,19182.3965,-0.669400842639,1.64889518887,0,0,
2330,2330,1.1650000,68873,1165,9668.96875,19185.7617,-0.0668084797049,4.2910347432,0,0,
2331,2331,1.1655000,68873,1165,9668.6084,19188.7676,0.0878954561443,5.28626450802,0,0,
2332,2332,1.1660000,68874,1166,9665.60352,19187.8047,-1.92577280639,1.55675216414,0,0,
2333,2333,1.1665000,68874,1166,9668.24805,19185.4004,-0.35492101072,-2.34019638115,0,0,
2334,2334,1.1670000,68875,1167,9670.41113,19180.834,1.73210646908,-8.48112281625,0,0,
2335,2335,1.1675000,68875,1167,9674.49805,19178.0684,6.20425300548,-8.74345420726,0,0,
2336,2336,1.1680000,68876,1168,9672.5752,19183.959,3.51340295169,-2.29834627716,0,0,
2337,2337,1.1685000,68876,1168,9671.97363,19181.0742,1.31608599427,-1.77557350098,0,0,
2338,2338,1.1690000,68877,1169,9672.93555,19184.6797,1.86057937788,2.34558153705,0,0,
2339,2339,1.1695000,68877,1169,9673.77734,19183.8379,2.56862115976,3.92816545173,0,0,
2340,2340,1.1700000,68878,1170,9673.05566,19183.4785,1.90058166622,2.95259351799,0,0,
2341,2341,1.1705000,68878,1170,9674.25781,19182.3965,3.11798159442,2.29099950576,0,0,
2342,2342,1.1710000,68879,1171,9674.37793,19184.7988,2.43723979926,4.56228545298,0,0,
2343,2343,1.1715000,68879,1171,9677.02246,19188.6465,4.55087453809,6.43955898479,0,0,
2344,2344,1.1720000,68880,1172,9675.21973,19189.8496,2.65740049761,4.8313572281,0,0,
2345,2345,1.1725000,68880,1172,9673.05566,19192.1328,0.857225237678,5.71027350005,0,0,
2346,2346,1.1730000,68881,1173,9674.8584,19191.6504,1.50684981273,5.58650036883,0,0,
2347,2347,1.1735000,68881,1173,9679.90723,19194.8965,4.31292153383,8.23041483635,0,0,
2348,2348,1.1740000,68882,1174,9679.30664,19195.377,3.16514809793,5.46715267249,0,0,
2349,2349,1.1745000,68882,1174,9677.38379,19191.5312,0.94778604725,0.479931347659,0,0,
2350,2350,1.1750000,68883,1175,9674.73926,19192.7324,-1.79538641432,0.413526925067,0,0,
2351,2351,1.1755000,68883,1175,9672.93555,19194.2949,-2.65994763806,2.30266504265,0,0,
2352,2352,1.1760000,68884,1176,9669.4502,19195.7383,-5.4672470247,4.64303930395,0,0,
2353,2353,1.1765000,68884,1176,9673.17676,19191.4121,-1.99464215428,0.336695662833,0,0,
2354,2354,1.1770000,68885,1177,9674.73926,19187.8047,-0.453861045141,-3.14913852987,0,0,
2355,2355,1.1775000,68885,1177,9676.06152,19184.5605,-0.216710743026,-7.09903408935,0,0,
2356,2356,1.1780000,68886,1178,9675.94043,19184.9199,-0.421988406799,-7.16236475684,0,0,
2357,2357,1.1785000,68886,1178,9680.14746,19179.873,4.40939395286,-10.2047240773,0,0,
2358,2358,1.1790000,68887,1179,9682.07129,19174.4629,4.91160284144,-13.0744087468,0,0,
2359,2359,1.1795000,68887,1179,9680.3877,19174.584,2.8753340296,-10.6366031025,0,0,
2360,2360,1.1800000,68888,1180,9682.07129,19173.7402,4.08261774247,-9.3129031418,0,0,
2361,2361,1.1805000,68888,1180,9679.78711,19178.4297,1.63268121969,-1.96112276924,0,0,
2362,2362,1.1810000,68889,1181,9679.66699,19187.2051,0.697489173233,6.58664805644,0,0,
2363,2363,1.1815000,68889,1181,9677.98438,19190.5703,-0.590142822381,10.232274911,0,0,
2364,2364,1.1820000,68890,1182,9682.79199,19192.1328,2.92630566192,9.83223290532,0,0,
2365,2365,1.1825000,68890,1182,9681.59082,19192.7324,0.780897019651,9.24186936946,0,0,
2366,2366,1.1830000,68891,1183,9683.63379,19193.4551,1.60892014396,8.29644611787,0,0,
2367,2367,1.1835000,68891,1183,9683.63379,19192.9746,1.36847182208,6.19936636923,0,0,
2368,2368,1.1840000,68892,1184,9682.91309,19193.4551,1.38716459956,6.57635340561,0,0,
2369,2369,1.1845000,68892,1184,9683.63379,19197.4219,1.69565108635,8.49305877659,0,0,
2370,2370,1.1850000,68893,1185,9681.59082,19192.373,-0.942247630314,1.96384575015,0,0,
2371,2371,1.1855000,68893,1185,9680.98926,19192.6133,-1.11822458466,0.344443132334,0,0,
2372,2372,1.1860000,68894,1186,9683.03223,19189.3672,1.28364500129,-4.14096723653,0,0,
2373,2373,1.1865000,68894,1186,9682.07129,19189.3672,-1.31589520117,-4.61984343046,0,0,
2374,2374,1.1870000,68895,1187,9681.95117,19189.7285,-1.70864627629,-5.35180152376,0,0,
2375,2375,1.1875000,68895,1187,9683.03223,19188.7676,-0.361742734543,-4.80964921479,0,0,
2376,2376,1.1880000,68896,1188,9685.55762,19189.9688,1.79071097984,-4.40045969149,0,0,
2377,2377,1.1885000,68896,1188,9686.1582,19186.002,0.861527499728,-4.87061582368,0,0,
2378,2378,1.1890000,68897,1189,9681.46973,19189.4883,-3.60034494582,-1.50433258385,0,0,
2379,2379,1.1895000,68897,1189,9683.63379,19189.248,-1.29001766649,0.429690241859,0,0,
2380,2380,1.1900000,68898,1190,9682.79199,19187.3242,-1.54354416503,-1.53543222658,0,0,
2381,2381,1.1905000,68898,1190,9681.22949,19184.7988,-2.44822496971,-2.87923092442,0,0,
2382,2382,1.1910000,68899,1191,9681.22949,19185.041,-2.29099315135,-2.24316897743,0,0,
2383,2383,1.1915000,68899,1191,9681.70996,19182.2754,-1.62653632361,-5.18140234065,0,0,
2384,2384,1.1920000,68900,1192,9684.71582,19187.3242,1.75503038876,-1.40482229218,0,0,
2385,2385,1.1925000,68900,1192,9684.11426,19188.2871,1.63005910205,-0.698012160445,0,0,
2386,2386,1.1930000,68901,1193,9683.39355,19187.6855,-0.12900003778,0.285617881703,0,0,
2387,2387,1.1935000,68901,1193,9683.63379,19188.5254,-1.55477318512,1.51134982914,0,0,
2388,2388,1.1940000,68902,1194,9680.74902,19192.373,-3.2847197053,3.37310305942,0,0,
2389,2389,1.1945000,68902,1194,9677.62402,19193.5742,-4.71796358224,4.05734272548,0,0,
2390,2390,1.1950000,68903,1195,9679.18652,19192.7324,-2.1632297542,1.97336434117,0,0,
2391,2391,1.1955000,68903,1195,9679.18652,19190.6895,-0.957860701205,0.562967559206,0,0,
2392,2392,1.1960000,68904,1196,9679.78711,19190.6895,0.146226407081,1.86313195289,0,0,
2393,2393,1.1965000,68904,1196,9679.06543,19186.3633,-1.37387428771,-0.799511798108,0,0,
2394,2394,1.1970000,68905,1197,9680.14746,19185.041,-0.405369708884,-1.07914495363,0,0,
2395,2395,1.1975000,68905,1197,9681.59082,19188.166,0.0566682696726,1.05748812293,0,0,
2396,2396,1.1980000,68906,1198,9680.3877,19188.6465,-0.865840474412,0.09047709228,0,0,
2397,2397,1.1985000,68906,1198,9682.43164,19186.9629,1.50398946816,-0.57733275296,0,0,
2398,2398,1.1990000,68907,1199,9680.98926,19181.7949,-0.211501072332,-4.13161889814,0,0,
2399,2399,1.1995000,68907,1199,9682.43164,19184.0801,1.78212800822,-1.81703741738,0,0,
2400,2400,1.2000000,68908,1200,9680.3877,19182.3965,0.144656843835,-3.05014574484,0,0,
2401,2401,1.2005000,68908,1200,9680.14746,19184.1992,0.82491975979,-0.815447094285,0,0,
2402,2402,1.2010000,68909,1201,9682.07129,19185.1602,2.21298815733,-0.944197349562,0,0,
2403,2403,1.2015000,68909,1201,9678.8252,19190.209,-0.0294540355655,4.12439710748,0,0,
2404,2404,1.2020000,68910,1202,9680.86914,19189.7285,0.820813323159,2.60045267868,0,0,
2405,2405,1.2025000,68910,1202,9679.90723,19188.5254,0.00473417659365,1.43845402585,0,0,
2406,2406,1.2030000,68911,1203,9683.75391,19191.291,2.66128979929,3.330865823,0,0,
2407,2407,1.2035000,68911,1203,9680.02734,19188.8867,-0.397087187572,0.649697136337,0,0,
2408,2408,1.2040000,68912,1204,9683.03223,19186.8438,3.35274634974,-0.264651057486,0,0,
2409,2409,1.2045000,68912,1204,9680.14746,19184.7988,0.659224284806,-2.40801974076,0,0,
2410,2410,1.2050000,68913,1205,9684.59473,19189.4883,4.34670543921,2.33084088367,0,0,
2411,2411,1.2055000,68913,1205,9685.79785,19188.6465,4.98082338853,0.316187186104,0,0,
2412,2412,1.2060000,68914,1206,9687.23926,19181.916,5.44751812044,-5.75506653825,0,0,
2413,2413,1.2065000,68914,1206,9687.23926,19183.2363,3.36847417416,-4.20778953782,0,0,
2414,2414,1.2070000,68915,1207,9680.86914,19186.002,-2.87125326012,-2.33408411527,0,0,
2415,2415,1.2075000,68915,1207,9681.83105,19186.002,-1.61890261706,-1.10905992512,0,0,
2416,2416,1.2080000,68916,1208,9682.19141,19187.4434,-1.40145783527,-0.763597867394,0,0,
2417,2417,1.2085000,68916,1208,9684.71582,19187.2051,-0.0110094251825,1.64482784724,0,0,
2418,2418,1.2090000,68917,1209,9683.15332,19186.3633,-0.885734599522,-0.031366201408,0,0,
2419,2419,1.2095000,68917,1209,9685.55762,19189.6074,0.717554769838,4.27901212641,0,0,
2420,2420,1.2100000,68918,1210,9682.79199,19189.4883,-1.47677917446,3.51071606931,0,0,
2421,2421,1.2105000,68918,1210,9685.31641,19190.9316,1.01890549422,4.71952559146,0,0,
2422,2422,1.2110000,68919,1211,9683.51367,19189.4883,-1.10587186653,2.34450153146,0,0,
2423,2423,1.2115000,68919,1211,9687.84082,19191.4121,2.11265835085,2.71451157765,0,0,
2424,2424,1.2120000,68920,1212,9688.68262,19190.4492,2.01535062977,-0.892406937125,0,0,
2425,2425,1.2125000,68920,1212,9688.56152,19186.002,1.74700684041,-5.19957716504,0,0,
2426,2426,1.2130000,68921,1213,9684.95605,19185.5215,-2.55310969926,-3.81158733251,0,0,
2427,2427,1.2135000,68921,1213,9684.83594,19185.041,-3.98077445916,-3.4509794177,0,0,
2428,2428,1.2140000,68922,1214,9686.1582,19186.123,-1.9022853765,-3.54916748029,0,0,
2429,2429,1.2145000,68922,1214,9684.47559,19187.3242,-2.55139300263,-1.92890242005,0,0,
2430,2430,1.2150000,68923,1215,9684.59473,19188.4062,-2.52022931045,-1.06957777263,0,0,
2431,2431,1.2155000,68923,1215,9682.55176,19184.5605,-3.68567664582,-3.11160555218,0,0,
2432,2432,1.2160000,68924,1216,9687.96094,19186.123,1.01371419248,-0.0260835973343,0,0,
2433,2433,1.2165000,68924,1216,9690.72559,19188.166,1.74166161215,3.4142683347,0,0,
2434,2434,1.2170000,68925,1217,9690.60547,19190.4492,0.180589933392,5.35657352995,0,0,
2435,2435,1.2175000,68925,1217,9689.40332,19189.248,-2.55719554664,2.28022710247,0,0,
2436,2436,1.2180000,68926,1218,9691.56738,19191.4121,-0.950868869461,2.47426071467,0,0,
2437,2437,1.2185000,68926,1218,9684.59473,19191.6504,-7.20595208673,2.85060364808,0,0,
2438,2438,1.2190000,68927,1219,9688.44238,19190.4492,-3.47259864676,2.3156681099,0,0,
2439,2439,1.2195000,68927,1219,9688.56152,19190.0879,-3.0886358997,0.539094882322,0,0,
2440,2440,1.2200000,68928,1220,9690.00488,19191.5312,-1.4323888964,1.22996648942,0,0,
2441,2441,1.2205000,68928,1220,9689.76465,19190.0879,-1.32622811589,-0.885727815488,0,0,
2442,2442,1.2210000,68929,1221,9686.39844,19191.6504,-4.82496509197,-1.04870254328,0,0,
2443,2443,1.2215000,68929,1221,9689.64355,19195.498,-0.716924530058,1.45739646271,0,0,
2444,2444,1.2220000,68930,1222,9691.44629,19192.0117,-0.736027275698,-2.42969761269,0,0,
2445,2445,1.2225000,68930,1222,9691.08691,19192.0117,-1.26144986891,-2.04910419514,0,0,
2446,2446,1.2230000,68931,1223,9691.44629,19186.6035,-2.3367956513,-6.99838204781,0,0,
2447,2447,1.2235000,68931,1223,9690.72559,19187.084,-2.03136085047,-5.2273387654,0,0,
2448,2448,1.2240000,68932,1224,9691.80762,19183.959,-0.791343179054,-5.89089908614,0,0,
2449,2449,1.2245000,68932,1224,9693.61035,19184.9199,1.04831043552,-4.12792257458,0,0,
2450,2450,1.2250000,68933,1225,9695.05273,19184.7988,0.97308320701,-3.80199053446,0,0,
2451,2451,1.2255000,68933,1225,9696.97559,19184.6797,2.10495362358,-3.58012694477,0,0,
2452,2452,1.2260000,68934,1226,9697.45703,19181.4355,1.66713692315,-4.61056499685,0,0,
2453,2453,1.2265000,68934,1226,9694.33203,19181.5547,-2.31974302393,-4.06512988981,0,0,
2454,2454,1.2270000,68935,1227,9693.25,19187.6855,-2.26988541788,0.600263067571,0,0,
2455,2455,1.2275000,68935,1227,9694.8125,19186.7246,-1.00013423065,0.626650740601,0,0,
2456,2456,1.2280000,68936,1228,9693.37012,19182.3965,-2.53058298642,-3.72934749322,0,0,
2457,2457,1.2285000,68936,1228,9695.29395,19184.5605,-1.774781283,1.14757989874,0,0,
2458,2458,1.2290000,68937,1229,9695.29395,19184.5605,-0.948724402731,0.982488091099,0,0,
2459,2459,1.2295000,68937,1229,9698.17871,19186.3633,0.713400251005,3.53612905744,0,0,
2460,2460,1.2300000,68938,1230,9698.89941,19186.8438,1.72542367833,3.90574527707,0,0,
2461,2461,1.2305000,68938,1230,9699.86133,19186.3633,1.83333835509,3.64765437124,0,0,
2462,2462,1.2310000,68939,1231,9694.8125,19186.7246,-2.71305859848,3.82898231749,0,0,
2463,2463,1.2315000,68939,1231,9695.41309,19187.5645,-2.76054193237,3.47003165628,0,0,
2464,2464,1.2320000,68940,1232,9696.25488,19188.5254,-1.7985125196,2.5168715171,0,0,
2465,2465,1.2325000,68940,1232,9698.7793,19188.2871,1.07572842212,2.44848571018,0,0,
2466,2466,1.2330000,68941,1233,9696.01465,19185.4004,-1.2543603405,0.829505756132,0,0,
2467,2467,1.2335000,68941,1233,9694.69238,19185.5215,-3.11504372766,1.30281158494,0,0,
2468,2468,1.2340000,68942,1234,9699.50098,19179.752,1.79131638333,-4.67912125713,0,0,
2469,2469,1.2345000,68942,1234,9699.86133,19185.4004,2.71913249208,1.03217384081,0,0,
2470,2470,1.2350000,68943,1235,9699.74121,19183.4785,2.02641163159,-0.749755712571,0,0,
2471,2471,1.2355000,68943,1235,9698.89941,19183.7188,1.65261719928,1.38071234563,0,0,
2472,2472,1.2360000,68944,1236,9700.3418,19185.8809,1.63279612013,3.99602607838,0,0,
2473,2473,1.2365000,68944,1236,9701.30371,19185.5215,0.967615287808,4.38572906535,0,0,
2474,2474,1.2370000,68945,1237,9699.50098,19183.7188,-1.11383701209,2.67582148369,0,0,
2475,2475,1.2375000,68945,1237,9700.70215,19186.4824,-0.591550558485,4.14895958735,0,0,
2476,2476,1.2380000,68946,1238,9701.30371,19186.3633,-0.303368894699,2.39885127716,0,0,
2477,2477,1.2385000,68946,1238,9702.50488,19187.4434,1.81501335019,3.695904669,0,0,
2478,2478,1.2390000,68947,1239,9703.94824,19185.8809,1.8734879694,3.09420278987,0,0,
2479,2479,1.2395000,68947,1239,9706.47168,19189.3672,3.66455183008,4.9199841068,0,0,
2480,2480,1.2400000,68948,1240,9703.94824,19186.8438,0.966232733739,1.7028640257,0,0,
2481,2481,1.2405000,68948,1240,9702.14551,19188.7676,-0.241631424845,2.89200634223,0,0,
2482,2482,1.2410000,68949,1241,9705.39062,19190.9316,2.54279090284,2.7769669147,0,0,
2483,2483,1.2415000,68949,1241,9710.7998,19191.4121,6.61239629513,1.51451377411,0,0,
2484,2484,1.2420000,68950,1242,9709.35645,19192.8535,2.7650831019,2.47345909694,0,0,
2485,2485,1.2425000,68950,1242,9709.59766,19189.9688,2.31814831473,-0.353944086399,0,0,
2486,2486,1.2430000,68951,1243,9708.99707,19188.166,0.134349764835,-1.62017089866,0,0,
2487,2487,1.2435000,68951,1243,9708.15527,19187.9258,-0.0383655358697,-1.64399280537,0,0,
2488,2488,1.2440000,68952,1244,9706.71289,19189.4883,-1.337161082,0.955650023204,0,0,
2489,2489,1.2445000,68952,1244,9708.87598,19189.6074,0.643791060064,0.273063632114,0,0,
2490,2490,1.2450000,68953,1245,9708.75586,19190.209,-0.526428565601,0.00309808037988,0,0,
2491,2491,1.2455000,68953,1245,9707.55371,19191.7715,-1.72865802321,0.417817790543,0,0,
2492,2492,1.2460000,68954,1246,9709.11621,19191.8926,-0.285260638195,1.0237785731,0,0,
2493,2493,1.2465000,68954,1246,9706.83301,19187.8047,-2.14802563698,-3.65143608639,0,0,
2494,2494,1.2470000,68955,1247,9708.15527,19189.6074,0.238543250549,-4.19970342681,0,0,
2495,2495,1.2475000,68955,1247,9711.76074,19188.166,2.83004108317,-4.47114395409,0,0,
2496,2496,1.2480000,68956,1248,9712.3623,19191.7715,2.83204874191,-1.35455476418,0,0,
2497,2497,1.2485000,68956,1248,9710.91992,19191.4121,-0.024597580942,-0.696836032199,0,0,
2498,2498,1.2490000,68957,1249,9709.35645,19193.6953,-0.709412137471,0.419957999319,0,0,
2499,2499,1.2495000,68957,1249,9709.95801,19193.4551,-1.03105172999,-0.0860052711362,0,0,
2500,2500,1.2500000,68958,1250,9708.75586,19193.8145,-1.20703357912,-0.289878403463,0,0,
2501,2501,1.2505000,68958,1250,9709.59766,19189.248,-0.384374269502,-4.07981730224,0,0,
2502,2502,1.2510000,68959,1251,9714.28516,19191.6504,4.58592492485,-1.79579605442,0,0,
2503,2503,1.2515000,68959,1251,9715.24707,19193.6953,3.77873567798,-0.985369936755,0,0,
2504,2504,1.2520000,68960,1252,9713.2041,19192.0117,1.19453605411,-3.93175619953,0,0,
2505,2505,1.2525000,68960,1252,9713.68457,19192.9746,1.41274969876,-2.56706189193,0,0,
2506,2506,1.2530000,68961,1253,9714.40527,19192.252,2.33412917434,-1.8820929544,0,0,
2507,2507,1.2535000,68961,1253,9714.52637,19193.4551,1.36486366248,-0.771298714769,0,0,
2508,2508,1.2540000,68962,1254,9714.52637,19195.1387,0.554523288266,0.192443104417,0,0,
2509,2509,1.2545000,68962,1254,9715.24707,19194.2949,1.66869296764,-2.00762075305,0,0,
2510,2510,1.2550000,68963,1255,9713.80469,19192.4941,0.0608876580223,-3.5006999524,0,0,
2511,2511,1.2555000,68963,1255,9717.53027,19190.6895,3.67349977749,-3.58221480883,0,0,
2512,2512,1.2560000,68964,1256,9720.41602,19188.6465,4.21809932499,-4.59822947199,0,0,
2513,2513,1.2565000,68964,1256,9718.25195,19186.8438,0.375976255957,-4.40971160543,0,0,
2514,2514,1.2570000,68965,1257,9713.08301,19188.7676,-4.15416512734,-1.54802606593,0,0,
2515,2515,1.2575000,68965,1257,9713.80469,19189.8496,-3.68023070787,-1.25859667047,0,0,
2516,2516,1.2580000,68966,1258,9714.40527,19188.7676,-2.97276887156,-2.67963579863,0,0,
2517,2517,1.2585000,68966,1258,9713.44434,19188.6465,-2.6038277758,-1.75120279612,0,0,
2518,2518,1.2590000,68967,1259,9717.53027,19188.166,0.322132444294,-0.354172038042,0,0,
2519,2519,1.2595000,68967,1259,9718.6123,19188.6465,0.785211439609,-0.595842575413,0,0,
2520,2520,1.2600000,68968,1260,9720.65625,19185.6426,2.73420373379,-2.35291515604,0,0,
2521,2521,1.2605000,68968,1260,9721.49707,19183.4785,3.46040556021,-3.54181948025,0,0,
2522,2522,1.2610000,68969,1261,9717.8916,19189.4883,-0.707923776875,1.21545756372,0,0,
2523,2523,1.2615000,68969,1261,9718.7334,19188.7676,-0.726016557982,0.128469863462,0,0,
2524,2524,1.2620000,68970,1262,9719.81445,19186.4824,-0.585018907259,-1.11781088686,0,0,
2525,2525,1.2625000,68970,1262,9718.37207,19187.5645,-1.70611989337,1.34936546475,0,0,
2526,2526,1.2630000,68971,1263,9721.25684,19188.2871,0.169552163066,3.01571534477,0,0,
2527,2527,1.2635000,68971,1263,9722.33887,19187.4434,1.6714847993,2.61236972413,0,0,
2528,2528,1.2640000,68972,1264,9721.8584,19187.6855,1.13607282778,3.78602096968,0,0,
2529,2529,1.2645000,68972,1264,9721.97852,19187.2051,0.634190583748,3.11205167725,0,0,
2530,2530,1.2650000,68973,1265,9724.74316,19188.166,1.98105481116,3.5741946362,0,0,
2531,2531,1.2655000,68973,1265,9719.09375,19186.6035,-3.11676994523,1.63767506379,0,0,
2532,2532,1.2660000,68974,1266,9719.21387,19189.7285,-2.86105875449,5.27382843869,0,0,
2533,2533,1.2665000,68974,1266,9721.7373,19193.4551,0.00675131656047,7.93393243287,0,0,
2534,2534,1.2670000,68975,1267,9719.4541,19189.9688,-1.42544473499,1.906088592,0,0,
2535,2535,1.2675000,68975,1267,9719.4541,19188.0449,-2.02696965903,1.00337151118,0,0,
2536,2536,1.2680000,68976,1268,9721.7373,19189.3672,0.163415981604,1.42945129358,0,0,
2537,2537,1.2685000,68976,1268,9723.66113,19186.6035,1.03586018114,0.192481146344,0,0,
2538,2538,1.2690000,68977,1269,9722.7002,19185.7617,0.757307200973,-0.889076553145,0,0,
2539,2539,1.2695000,68977,1269,9727.2666,19186.9629,3.37618670105,0.869208625543,0,0,
2540,2540,1.2700000,68978,1270,9722.81934,19187.6855,-0.369612228956,1.60001483787,0,0,
2541,2541,1.2705000,68978,1270,9725.94531,19188.4062,1.79736986342,3.26974712993,0,0,
2542,2542,1.2710000,68979,1271,9728.34863,19187.9258,3.21422593656,2.17596563143,0,0,
2543,2543,1.2715000,68979,1271,9723.78125,19187.2051,-2.10532487323,0.530479563343,0,0,
2544,2544,1.2720000,68980,1272,9726.5459,19186.8438,0.477293685152,-0.363064368546,0,0,
2545,2545,1.2725000,68980,1272,9725.22363,19184.5605,-0.960967641583,-1.82031028133,0,0,
2546,2546,1.2730000,68981,1273,9725.94531,19184.5605,-0.0557879639467,-0.1039717205,0,0,
2547,2547,1.2735000,68981,1273,9726.42578,19181.3145,-0.386882750523,-2.44695818624,0,0,
2548,2548,1.2740000,68982,1274,9726.06543,19178.1895,-1.25201447589,-4.49813020257,0,0,
2549,2549,1.2745000,68982,1274,9729.6709,19177.4668,2.0807396511,-4.41521311286,0,0,
2550,2550,1.2750000,68983,1275,9730.75293,19179.1504,2.43543754464,-1.32496905907,0,0,
2551,2551,1.2755000,68983,1275,9730.39258,19177.4668,1.22217026388,-0.650835276132,0,0,
2552,2552,1.2760000,68984,1276,9731.95508,19179.873,0.599139598951,2.60855248136,0,0,
2553,2553,1.2765000,68984,1276,9731.35449,19180.7129,-0.953636826966,4.47102156253,0,0,
2554,2554,1.2770000,68985,1277,9729.55078,19182.0352,-1.89939847973,5.36354641673,0,0,
2555,2555,1.2775000,68985,1277,9732.55566,19180.834,-0.314788574333,2.99641000228,0,0,
2556,2556,1.2780000,68986,1278,9730.87305,19178.5488,-2.54581925836,0.563600818734,0,0,
2557,2557,1.2785000,68986,1278,9732.0752,19181.916,-0.950839932437,3.97036764236,0,0,
2558,2558,1.2790000,68987,1279,9734.59961,19180.3535,-0.636749578806,3.42113289805,0,0,
2559,2559,1.2795000,68987,1279,9734.35938,19181.6738,-1.71511288506,3.34179124789,0,0,
2560,2560,1.2800000,68988,1280,9734.59961,19182.1562,-1.7032445919,4.05551352307,0,0,
2561,2561,1.2805000,68988,1280,9729.91113,19183.3574,-5.31358303069,4.54531957063,0,0,
2562,2562,1.2810000,68989,1281,9731.95508,19187.084,-2.85325471593,4.7307906388,0,0,
2563,2563,1.2815000,68989,1281,9729.55078,19189.0059,-5.35639543842,4.79534450198,0,0,
2564,2564,1.2820000,68990,1282,9729.55078,19183.7188,-5.41508123536,-0.16486010447,0,0,
2565,2565,1.2825000,68990,1282,9731.47461,19176.7461,-2.76733680606,-5.55345430051,0,0,
2566,2566,1.2830000,68991,1283,9736.28223,19176.3848,0.434930283801,-4.46280425801,0,0,
2567,2567,1.2835000,68991,1283,9737.96582,19179.5117,1.93172558713,-0.830904132547,0,0,
2568,2568,1.2840000,68992,1284,9738.08496,19181.5547,1.73090994937,1.52530075889,0,0,
2569,2569,1.2845000,68992,1284,9736.64355,19180.4727,-0.248109888272,0.159406231848,0,0,
2570,2570,1.2850000,68993,1285,9736.7627,19186.2422,-1.30533800036,4.19326612124,0,0,
2571,2571,1.2855000,68993,1285,9735.08008,19186.6035,-1.68856556167,3.17313994627,0,0,
2572,2572,1.2860000,68994,1286,9738.56641,19191.0508,0.969193747748,5.88006497869,0,0,
2573,2573,1.2865000,68994,1286,9734.83984,19199.584,-2.58624456625,10.5279810794,0,0,
2574,2574,1.2870000,68995,1287,9733.15723,19206.6777,-2.84756700868,12.2262753897,0,0,
2575,2575,1.2875000,68995,1287,9737.96582,19214.25,0.807611345993,15.5137350297,0,0,
2576,2576,1.2880000,68996,1288,9735.56152,19216.293,-1.81839655888,11.5565586606,0,0,
2577,2577,1.2885000,68996,1288,9740.12891,19209.9219,1.31199314104,3.25013331818,0,0,
2578,2578,1.2890000,68997,1289,9740.36914,19207.6387,1.88344970382,-1.9978250953,0,0,
2579,2579,1.2895000,68997,1289,9741.81152,19207.2773,1.10212419369,-4.38361504124,0,0,
2580,2580,1.2900000,68998,1290,9744.81738,19207.6387,4.3738541487,-5.96088978824,0,0,
2581,2581,1.2905000,68998,1290,9742.17285,19204.1523,0.385074013734,-9.49918015827,0,0,
2582,2582,1.2910000,68999,1291,9740.85059,19201.8691,-1.40659544332,-12.2712988073,0,0,
2583,2583,1.2915000,68999,1291,9739.88867,19204.2734,-1.99102422501,-11.015041003,0,0,
2584,2584,1.2920000,69000,1292,9737.96582,19197.9023,-3.65912091056,-16.9319277655,0,0,
2585,2585,1.2925000,69000,1292,9739.88867,19189.248,-1.30667789326,-22.3545017155,0,0,
2586,2586,1.2930000,69001,1293,9738.80664,19186.6035,-1.80592114644,-21.0887831502,0,0,
2587,2587,1.2935000,69001,1293,9741.93164,19185.1602,0.594484988764,-19.0974615063,0,0,
2588,2588,1.2940000,69002,1294,9741.57129,19177.5879,-0.0728930840419,-22.3615604688,0,0,
2589,2589,1.2945000,69002,1294,9740.36914,19160.6387,-1.26500849399,-32.7277072237,0,0,
2590,2590,1.2950000,69003,1295,9740.48926,19138.6426,-0.882265312815,-44.0313250268,0,0,
2591,2591,1.2955000,69003,1295,9746.37988,19125.2988,4.13765486527,-43.9086028998,0,0,
2592,2592,1.2960000,69004,1296,9747.70215,19130.8301,3.19969483164,-28.695101133,0,0,
2593,2593,1.2965000,69004,1296,9747.2207,19143.4512,1.87764145543,-9.25799998984,0,0,
2594,2594,1.2970000,69005,1297,9748.42285,19153.3066,3.35883542071,3.77176243548,0,0,
2595,2595,1.2975000,69005,1297,9749.74512,19159.5566,2.56922157103,11.1803597279,0,0,
2596,2596,1.2980000,69006,1298,9746.98047,19163.2832,-0.402734225943,15.6237437939,0,0,
2597,2597,1.2985000,69006,1298,9747.10059,19163.6445,-0.103380157962,16.1313070756,0,0,
2598,2598,1.2990000,69007,1299,9751.66895,19172.0586,1.89573144199,24.3403823283,0,0,
2599,2599,1.2995000,69007,1299,9754.43262,19174.8223,3.1902357186,24.1251243646,0,0,
2600,2600,1.3000000,69008,1300,9754.07227,19179.9922,1.9524090322,26.9318050611,0,0,
2601,2601,1.3005000,69008,1300,9754.91406,19196.3398,2.95803400286,37.2173607577,0,0,
2602,2602,1.3010000,69009,1301,9753.11035,19202.9512,0.340247798318,34.8793518102,0,0,
2603,2603,1.3015000,69009,1301,9751.1875,19203.6719,-1.89730574183,29.0864936367,0,0,
2604,2604,1.3020000,69010,1302,9751.1875,19194.7773,-2.58017394718,18.0354213921,0,0,
2605,2605,1.3025000,69010,1302,9752.62988,19181.4355,-1.41262686987,5.46735609845,0,0,
2606,2606,1.3030000,69011,1303,9748.66309,19175.5449,-6.31717804199,0.166892197809,0,0,
2607,2607,1.3035000,69011,1303,9747.34082,19173.502,-6.33098506292,-1.67819525125,0,0,
2608,2608,1.3040000,69012,1304,9748.54297,19174.584,-3.98937960692,-0.188048548652,0,0,
2609,2609,1.3045000,69012,1304,9750.10547,19171.457,-1.87210241679,-2.41349279672,0,0,
2610,2610,1.3050000,69013,1305,9752.62988,19164.0059,-0.165159576758,-9.04338534264,0,0,
2611,2611,1.3055000,69013,1305,9754.43262,19160.2793,2.45738047683,-10.1183631071,0,0,
2612,2612,1.3060000,69014,1306,9752.87012,19167.25,0.000783805959512,-2.5347305771,0,0,
2613,2613,1.3065000,69014,1306,9750.34668,19168.5723,-1.42809483156,-2.0878615426,0,0,
2614,2614,1.3070000,69015,1307,9752.38965,19157.7539,1.53317482563,-11.6577910864,0,0,
2615,2615,1.3075000,69015,1307,9755.87598,19150.1816,2.86890523242,-15.0241585799,0,0,
2616,2616,1.3080000,69016,1308,9755.99512,19150.6621,2.58411347055,-11.3112016037,0,0,
2617,2617,1.3085000,69016,1308,9753.71191,19152.1055,-1.08897788585,-4.22530188719,0,0,
2618,2618,1.3090000,69017,1309,9757.19824,19145.7344,2.60104325917,-6.60625621977,0,0,
2619,2619,1.3095000,69017,1309,9758.03906,19137.0801,1.47661694736,-10.0984283542,0,0,
2620,2620,1.3100000,69018,1310,9762.12598,19141.5273,5.03486201293,-2.26860982214,0,0,
2621,2621,1.3105000,69018,1310,9762.72754,19147.2969,4.35374879668,6.59962222491,0,0,
2622,2622,1.3110000,69019,1311,9762.60645,19160.8809,3.21133482305,19.074742819,0,0,
2623,2623,1.3115000,69019,1311,9761.40527,19170.377,1.72816850841,24.4425966835,0,0,
2624,2624,1.3120000,69020,1312,9758.87988,19174.584,-0.780179757313,25.5528439879,0,0,
2625,2625,1.3125000,69020,1312,9761.40527,19179.9922,1.06330452953,28.0487515089,0,0,
2626,2626,1.3130000,69021,1313,9758.52051,19189.127,-1.34534738622,31.8167762998,0,0,
2627,2627,1.3135000,69021,1313,9756.83691,19195.377,-3.48289478076,31.3275898729,0,0,
2628,2628,1.3140000,69022,1314,9756.47656,19191.8926,-3.319094756,23.1288619107,0,0,
2629,2629,1.3145000,69022,1314,9752.99121,19184.7988,-5.47976017642,14.0376021129,0,0,
2630,2630,1.3150000,69023,1315,9752.99121,19181.5547,-4.30936755989,10.4926273858,0,0,
2631,2631,1.3155000,69023,1315,9753.35059,19172.7793,-3.8883048475,2.32666748866,0,0,
2632,2632,1.3160000,69024,1316,9752.02832,19163.5254,-5.01198644631,-8.91382367248,0,0,
2633,2633,1.3165000,69024,1316,9756.59668,19150.543,0.0171509408128,-21.6015268588,0,0,
2634,2634,1.3170000,69025,1317,9752.26953,19155.4707,-2.36377410346,-17.317663606,0,0,
2635,2635,1.3175000,69025,1317,9754.3125,19160.5195,-0.670981562394,-13.2759296712,0,0,
2636,2636,1.3180000,69026,1318,9757.07715,19159.3184,2.80910506188,-14.140600398,0,0,
2637,2637,1.3185000,69026,1318,9755.87598,19160.2793,2.21594672399,-12.6229494832,0,0,
2638,2638,1.3190000,69027,1319,9757.43848,19156.9121,1.78353447538,-14.9622288025,0,0,
2639,2639,1.3195000,69027,1319,9754.67285,19158.2363,-0.799463894173,-13.5211234332,0,0,
2640,2640,1.3200000,69028,1320,9762.12598,19154.75,6.17751262845,-15.3813891853,0,0,
2641,2641,1.3205000,69028,1320,9767.77539,19148.8594,10.9133244429,-20.872406038,0,0,
2642,2642,1.3210000,69029,1321,9768.85742,19136.4785,10.3099125483,-30.2156571969,0,0,
2643,2643,1.3215000,69029,1321,9766.93457,19134.916,7.21507751117,-26.2593341467,0,0,
2644,2644,1.3220000,69030,1322,9766.81348,19137.8008,5.35200478183,-15.8254753232,0,0,
2645,2645,1.3225000,69030,1322,9763.08789,19144.5332,1.00836432275,-3.02471332872,0,0,
2646,2646,1.3230000,69031,1323,9756.7168,19157.875,-4.95181592309,10.6192477367,0,0,
2647,2647,1.3235000,69031,1323,9753.35059,19166.0488,-6.32885822731,16.0815249984,0,0,
2648,2648,1.3240000,69032,1324,9758.76074,19172.5391,-0.504211929728,18.6325630925,0,0,
2649,2649,1.3245000,69032,1324,9762.36621,19168.6934,2.56161433408,12.6388696997,0,0,
2650,2650,1.3250000,69033,1325,9762.60645,19163.1641,1.45112492011,5.77328277374,0,0,
2651,2651,1.3255000,69033,1325,9758.03906,19163.5254,-1.78329250698,5.07569887049,0,0,
2652,2652,1.3260000,69034,1326,9764.40918,19173.1406,3.5639861557,9.74380554184,0,0,
2653,2653,1.3265000,69034,1326,9764.53027,19181.916,3.94735954495,12.5491154468,0,0,
2654,2654,1.3270000,69035,1327,9763.32812,19191.8926,2.65256678853,17.2449609241,0,0,
2655,2655,1.3275000,69035,1327,9760.32324,19198.2637,-1.89285283556,18.2505480843,0,0,
2656,2656,1.3280000,69036,1328,9757.91895,19192.0117,-3.37388252001,6.70174884665,0,0,
2657,2657,1.3285000,69036,1328,9760.32324,19179.5117,-1.40927054615,-5.6731280591,0,0,
2658,2658,1.3290000,69037,1329,9763.08789,19164.4863,1.09031883015,-17.9733810529,0,0,
2659,2659,1.3295000,69037,1329,9765.13086,19156.1914,1.39117511145,-21.8202422629,0,0,
2660,2660,1.3300000,69038,1330,9769.21777,19148.0176,4.18724512169,-26.8228919331,0,0,
2661,2661,1.3305000,69038,1330,9767.1748,19145.6152,1.4581699567,-24.8773370601,0,0,
2662,2662,1.3310000,69039,1331,9766.57324,19141.7676,0.549791154381,-26.0320356953,0,0,
2663,2663,1.3315000,69039,1331,9763.20801,19148.7402,-1.96730726946,-17.900707169,0,0,
2664,2664,1.3320000,69040,1332,9767.1748,19154.8691,1.97876458364,-9.5966548896,0,0,
2665,2665,1.3325000,69040,1332,9767.89551,19156.1914,1.4633550387,-5.85039140259,0,0,
2666,2666,1.3330000,69041,1333,9768.97754,19155.9512,2.55803680451,-5.05389732179,0,0,
2667,2667,1.3335000,69041,1333,9768.49707,19164.4863,0.942140108461,2.90982291656,0,0,
2668,2668,1.3340000,69042,1334,9768.97754,19164.3652,0.72926578813,4.57131964929,0,0,
2669,2669,1.3345000,69042,1334,9767.65527,19157.875,-0.321817863303,2.15946967655,0,0,
2670,2670,1.3350000,69043,1335,9761.04395,19156.3125,-6.05903133441,4.47182518874,0,0,
2671,2671,1.3355000,69043,1335,9759.00098,19154.6289,-7.69938866162,6.75517570683,0,0,
2672,2672,1.3360000,69044,1336,9761.52441,19155.5918,-5.11098608598,7.50804969163,0,0,
2673,2673,1.3365000,69044,1336,9759.24121,19160.2793,-6.95298735801,11.1196230377,0,0,
2674,2674,1.3370000,69045,1337,9760.44336,19163.7637,-3.4821680469,9.76124051504,0,0,
2675,2675,1.3375000,69045,1337,9763.56836,19172.6602,-1.41730547466,13.0798430422,0,0,
2676,2676,1.3380000,69046,1338,9763.92871,19169.5332,-0.907809328687,7.47357663233,0,0,
2677,2677,1.3385000,69046,1338,9765.73145,19167.1309,1.17606552622,3.29987801656,0,0,
2678,2678,1.3390000,69047,1339,9764.0498,19165.207,-2.17848398372,0.809190584383,0,0,
2679,2679,1.3395000,69047,1339,9763.20801,19161.3613,-2.4632572816,-4.04620612501,0,0,
2680,2680,1.3400000,69048,1340,9764.40918,19165.9277,-2.07484141238,0.23933237763,0,0,
2681,2681,1.3405000,69048,1340,9767.05371,19163.043,0.267346023669,-3.74517769053,0,0,
2682,2682,1.3410000,69049,1341,9768.01562,19163.7637,1.11346970557,-2.95374018036,0,0,
2683,2683,1.3415000,69049,1341,9769.09766,19163.8848,2.36499384247,-2.79245935255,0,0,
2684,2684,1.3420000,69050,1342,9766.93457,19167.8516,-0.13415644394,2.25471590462,0,0,
2685,2685,1.3425000,69050,1342,9767.77539,19170.2559,0.999892013241,5.14502518355,0,0,
2686,2686,1.3430000,69051,1343,9766.33301,19171.5781,0.231240554462,3.76244474501,0,0,
2687,2687,1.3435000,69051,1343,9763.92871,19171.457,-0.958591816904,1.34470756872,0,0,
2688,2688,1.3440000,69052,1344,9765.37207,19167.25,-0.465700129538,-3.76427654194,0,0,
2689,2689,1.3445000,69052,1344,9765.85254,19168.332,-0.691047457652,-1.28716082425,0,0,
2690,2690,1.3450000,69053,1345,9763.80859,19166.2891,-2.99436439673,-1.81110959975,0,0,
2691,2691,1.3455000,69053,1345,9765.97266,19162.082,0.628816897997,-4.69480986781,0,0,
2692,2692,1.3460000,69054,1346,9764.77051,19160.7598,-1.6993671861,-7.72913887599,0,0,
2693,2693,1.3465000,69054,1346,9767.05371,19163.1641,1.24327337157,-6.8296580912,0,0,
2694,2694,1.3470000,69055,1347,9762.84668,19164.7266,-1.78467890413,-5.33561040481,0,0,
2695,2695,1.3475000,69055,1347,9765.85254,19164.7266,0.339299498748,-4.13955774188,0,0,
2696,2696,1.3480000,69056,1348,9763.68848,19166.8887,-0.90128129332,-0.529256195288,0,0,
2697,2697,1.3485000,69056,1348,9764.89062,19166.2891,-0.580545907472,3.05108590875,0,0,
2698,2698,1.3490000,69057,1349,9763.32812,19164.4863,-2.11162989234,5.17365116972,0,0,
2699,2699,1.3495000,69057,1349,9764.40918,19164.6055,-1.92049220681,7.60268522819,0,0,
2700,2700,1.3500000,69058,1350,9765.01074,19168.4531,-1.6869597539,10.5840216263,0,0,
2701,2701,1.3505000,69058,1350,9763.92871,19167.4902,-1.75163230985,8.67111969022,0,0,
2702,2702,1.3510000,69059,1351,9761.04395,19168.4531,-3.30152717383,7.17958859082,0,0,
2703,2703,1.3515000,69059,1351,9764.53027,19163.8848,1.49923106417,-0.503383400555,0,0,
2704,2704,1.3520000,69060,1352,9762.72754,19159.3184,-0.079356014767,-4.84746412392,0,0,
2705,2705,1.3525000,69060,1352,9763.08789,19159.1973,0.146792535869,-3.25624154236,0,0,
2706,2706,1.3530000,69061,1353,9763.32812,19156.0723,1.20702254468,-4.90818233225,0,0,
2707,2707,1.3535000,69061,1353,9762.24609,19155.9512,0.33162091327,-5.01400971187,0,0,
2708,2708,1.3540000,69062,1354,9760.32324,19160.7598,-0.898416471243,2.24948763467,0,0,
2709,2709,1.3545000,69062,1354,9761.40527,19161.6016,1.36923828526,7.10198136053,0,0,
2710,2710,1.3550000,69063,1355,9765.73145,19159.6777,6.19019402983,8.10666268482,0,0,
2711,2711,1.3555000,69063,1355,9764.29004,19159.0762,3.92400352165,10.3392070746,0,0,
2712,2712,1.3560000,69064,1356,9764.29004,19155.1113,2.51829536734,6.34333852284,0,0,
2713,2713,1.3565000,69064,1356,9766.69336,19152.1055,3.95673488668,3.30016839785,0,0,
2714,2714,1.3570000,69065,1357,9767.77539,19156.6738,4.99645080774,4.66056264009,0,0,
2715,2715,1.3575000,69065,1357,9762.84668,19162.5625,-1.29324309341,6.05469618025,0,0,
2716,2716,1.3580000,69066,1358,9759.36133,19168.332,-3.87438393504,10.2903215718,0,0,
2717,2717,1.3585000,69066,1358,9762.00586,19173.7402,-0.774926505178,13.0142117522,0,0,
2718,2718,1.3590000,69067,1359,9763.32812,19176.7461,-0.504323589604,13.3600073237,0,0,
2719,2719,1.3595000,69067,1359,9762.36621,19179.5117,-0.903736365779,12.4403283309,0,0,
2720,2720,1.3600000,69068,1360,9762.72754,19176.0254,-1.33161974987,6.04575305598,0,0,
2721,2721,1.3605000,69068,1360,9763.44824,19175.9043,-0.936424067156,3.52481578689,0,0,
2722,2722,1.3610000,69069,1361,9762.60645,19168.4531,-1.31821109327,-4.32977586941,0,0,
2723,2723,1.3615000,69069,1361,9763.20801,19164.8457,-0.0512307400296,-7.47419137521,0,0,
2724,2724,1.3620000,69070,1362,9764.29004,19162.8027,1.22843220195,-7.88440043141,0,0,
2725,2725,1.3625000,69070,1362,9760.20215,19159.918,-1.83924918118,-8.42060287781,0,0,
2726,2726,1.3630000,69071,1363,9765.13086,19159.7988,3.52313119001,-8.48879207423,0,0,
2727,2727,1.3635000,69071,1363,9765.49121,19164.6055,4.41591456472,-4.25009713727,0,0,
2728,2728,1.3640000,69072,1364,9762.36621,19164.125,0.279903788014,-4.24570782565,0,0,
2729,2729,1.3645000,69072,1364,9766.81348,19158.957,3.32034535381,-7.03533936388,0,0,
2730,2730,1.3650000,69073,1365,9768.97754,19155.3496,4.1858830269,-7.40335483948,0,0,
2731,2731,1.3655000,69073,1365,9768.13574,19157.2734,3.28171688977,-3.35537533808,0,0,
2732,2732,1.3660000,69074,1366,9765.25098,19150.7832,-0.625355863822,-9.79196996629,0,0,
2733,2733,1.3665000,69074,1366,9766.69336,19153.5469,0.707605511161,-7.79777183443,0,0,
2734,2734,1.3670000,69075,1367,9763.08789,19151.623,-1.36625535831,-8.6400891001,0,0,
2735,2735,1.3675000,69075,1367,9761.64551,19156.3125,-3.49388565304,-2.65620269377,0,0,
2736,2736,1.3680000,69076,1368,9760.32324,19158.2363,-3.23039950081,0.271367000166,0,0,
2737,2737,1.3685000,69076,1368,9758.63965,19154.9902,-4.9324975284,1.19889350326,0,0,
2738,2738,1.3690000,69077,1369,9763.92871,19162.5625,0.198472772315,11.0329316635,0,0,
2739,2739,1.3695000,69077,1369,9762.60645,19165.6875,-2.04615209273,14.2173106382,0,0,
2740,2740,1.3700000,69078,1370,9760.44336,19164.125,-4.0775805676,10.6128322863,0,0,
2741,2741,1.3705000,69078,1370,9761.04395,19160.0371,-2.28192894226,6.0356009592,0,0,
2742,2742,1.3710000,69079,1371,9760.08301,19158.1152,-1.82440615111,2.55720908988,0,0,
2743,2743,1.3715000,69079,1371,9762.48633,19158.8359,0.910157288453,1.2005428428,0,0,
2744,2744,1.3720000,69080,1372,9765.25098,19164.6055,3.32804359569,5.54472543765,0,0,
2745,2745,1.3725000,69080,1372,9760.80371,19168.332,-1.1684885861,7.5944035017,0,0,
2746,2746,1.3730000,69081,1373,9761.28418,19170.8574,-0.00492097063348,8.06163711171,0,0,
2747,2747,1.3735000,69081,1373,9761.40527,19174.7031,0.34019074707,7.69563954548,0,0,
2748,2748,1.3740000,69082,1374,9758.87988,19174.3418,-1.26736078301,5.51853219724,0,0,
2749,2749,1.3745000,69082,1374,9759.72168,19176.1465,0.324331256781,7.69758442517,0,0,
2750,2750,1.3750000,69083,1375,9756.95703,19175.0645,-1.51867586373,6.84815302637,0,0,
2751,2751,1.3755000,69083,1375,9760.92383,19173.9824,2.30736385692,6.061606693,0,0,
2752,2752,1.3760000,69084,1376,9759.24121,19175.9043,0.0230396334293,5.82194091134,0,0,
2753,2753,1.3765000,69084,1376,9759.72168,19170.2559,0.0822461499453,-1.29753760956,0,0,
2754,2754,1.3770000,69085,1377,9760.56348,19165.6875,1.46380651597,-9.31853777836,0,0,
2755,2755,1.3775000,69085,1377,9763.20801,19150.0605,3.25852728382,-25.3908620167,0,0,
2756,2756,1.3780000,69086,1378,9764.16895,19140.5645,4.07107616526,-30.3063778459,0,0,
2757,2757,1.3785000,69086,1378,9764.77051,19140.3262,3.46680698001,-26.3403548565,0,0,
2758,2758,1.3790000,69087,1379,9763.08789,19146.0957,0.346400135272,-17.1207519404,0,0,
2759,2759,1.3795000,69087,1379,9764.65039,19159.0762,1.77243059738,-4.08140088853,0,0,
2760,2760,1.3800000,69088,1380,9761.88574,19162.9238,-1.78088515922,-0.099053542758,0,0,
2761,2761,1.3805000,69088,1380,9758.52051,19167.3711,-4.82043758504,3.10273726509,0,0,
2762,2762,1.3810000,69089,1381,9758.87988,19169.0527,-3.4883109368,4.75046622774,0,0,
2763,2763,1.3815000,69089,1381,9764.89062,19172.2988,2.26712784145,6.62693834403,0,0,
2764,2764,1.3820000,69090,1382,9761.76562,19170.9766,-0.696278075331,4.6419910039,0,0,
2765,2765,1.3825000,69090,1382,9761.64551,19168.6934,0.270768477853,2.56524346154,0,0,
2766,2766,1.3830000,69091,1383,9759.8418,19176.5059,-1.38127990839,6.88539964549,0,0,
2767,2767,1.3835000,69091,1383,9760.56348,19175.5449,0.365097297205,2.43703765263,0,0,
2768,2768,1.3840000,69092,1384,9759.60156,19169.6543,-0.576880815935,-3.71486492637,0,0,
2769,2769,1.3845000,69092,1384,9760.92383,19172.5391,-0.506846828752,-0.0749255838831,0,0,
2770,2770,1.3850000,69093,1385,9761.04395,19174.3418,-0.763472901973,2.05448338997,0,0,
2771,2771,1.3855000,69093,1385,9765.01074,19171.9395,3.37190525999,-0.837925783152,0,0,
2772,2772,1.3860000,69094,1386,9763.68848,19154.1484,1.54974671227,-16.5885207509,0,0,
2773,2773,1.3865000,69094,1386,9767.29492,19133.3535,4.0979542443,-33.2804832793,0,0,
2774,2774,1.3870000,69095,1387,9767.65527,19123.498,5.02708719776,-35.5151099965,0,0,
2775,2775,1.3875000,69095,1387,9766.93457,19120.9727,2.66727844631,-30.8105035446,0,0,
2776,2776,1.3880000,69096,1388,9761.64551,19133.1133,-1.55564957173,-13.8255947705,0,0,
2777,2777,1.3885000,69096,1388,9761.40527,19142.0078,-2.15065897602,0.631586457516,0,0,
2778,2778,1.3890000,69097,1389,9758.2793,19147.6582,-5.44451357916,8.27811398893,0,0,
2779,2779,1.3895000,69097,1389,9756.95703,19152.7051,-6.27719749369,13.8874237117,0,0,
2780,2780,1.3900000,69098,1390,9759.36133,19144.7715,-3.35535483691,6.87958968878,0,0,
2781,2781,1.3905000,69098,1390,9762.84668,19127.8242,0.368468602633,-5.15378346,0,0,
2782,2782,1.3910000,69099,1391,9765.6123,19116.1641,3.2057642609,-11.7993994331,0,0,
2783,2783,1.3915000,69099,1391,9766.81348,19120.9727,3.2952056193,-4.40376049099,0,0,
2784,2784,1.3920000,69100,1392,9767.29492,19136.2383,2.60403169998,10.5218697927,0,0,
2785,2785,1.3925000,69100,1392,9766.81348,19143.6914,1.93975092744,16.7932484133,0,0,
2786,2786,1.3930000,69101,1393,9769.21777,19155.7109,3.48424812538,25.501503128,0,0,
2787,2787,1.3935000,69101,1393,9762.48633,19165.0879,-2.90681510184,28.4929130651,0,0,
2788,2788,1.3940000,69102,1394,9764.53027,19165.5684,-0.306102073001,25.3032920148,0,0,
2789,2789,1.3945000,69102,1394,9760.20215,19158.4746,-3.79976134934,17.7107922688,0,0,
2790,2790,1.3950000,69103,1395,9758.39941,19160.6387,-4.09183472045,19.180930821,0,0,
2791,2791,1.3955000,69103,1395,9760.92383,19156.9121,-1.99481482432,15.3442662862,0,0,
2792,2792,1.3960000,69104,1396,9754.67285,19152.1055,-7.02175877194,9.1463831517,0,0,
2793,2793,1.3965000,69104,1396,9754.19238,19148.7402,-6.50493901229,5.88852799534,0,0,
2794,2794,1.3970000,69105,1397,9751.54785,19154.8691,-6.91543003321,8.13793217498,0,0,
2795,2795,1.3975000,69105,1397,9747.70215,19163.8848,-8.92939959946,13.2363570406,0,0,
2796,2796,1.3980000,69106,1398,9748.54297,19168.332,-5.64274622981,14.3959709975,0,0,
2797,2797,1.3985000,69106,1398,9749.50488,19170.8574,-3.37544484119,11.7724475338,0,0,
2798,2798,1.3990000,69107,1399,9749.98535,19167.1309,-2.00416327837,3.80692547456,0,0,
2799,2799,1.3995000,69107,1399,9750.58691,19157.5137,-0.164874224218,-9.16493495612,0,0,
2800,2800,1.4000000,69108,1400,9750.82715,19163.8848,0.878770216167,-4.5586526396,0,0,
2801,2801,1.4005000,69108,1400,9748.90332,19170.0156,0.345749654533,-1.58075045508,0,0,
2802,2802,1.4010000,69109,1401,9749.38477,19181.4355,1.85071276863,6.50060437099,0,0,
2803,2803,1.4015000,69109,1401,9745.89844,19193.5742,-0.975857864811,12.5440812283,0,0,
2804,2804,1.4020000,69110,1402,9738.44629,19202.709,-4.98558868471,15.5583492493,0,0,
2805,2805,1.4025000,69110,1402,9736.88379,19191.0508,-3.0375458545,1.1908169353,0,0,
2806,2806,1.4030000,69111,1403,9744.0957,19163.1641,5.18133349537,-26.9680168332,0,0,
2807,2807,1.4035000,69111,1403,9748.18262,19139.002,9.65075002731,-45.337156069,0,0,
2808,2808,1.4040000,69112,1404,9751.54785,19126.9824,12.0428317436,-47.5342580363,0,0,
2809,2809,1.4045000,69112,1404,9756.23633,19118.6895,13.6620375861,-45.6526652393,0,0,
2810,2810,1.4050000,69113,1405,9755.63477,19118.9297,11.1852919721,-36.0663182025,0,0,
2811,2811,1.4055000,69113,1405,9752.38965,19124.2168,7.21797967566,-23.7157148809,0,0,
2812,2812,1.4060000,69114,1406,9745.6582,19132.0312,1.32288661227,-9.45423697053,0,0,
2813,2813,1.4065000,69114,1406,9748.42285,19137.9199,3.4841597128,-0.29016999232,0,0,
2814,2814,1.4070000,69115,1407,9748.90332,19142.3691,5.13225912823,5.55407345608,0,0,
2815,2815,1.4075000,69115,1407,9745.77832,19146.8164,1.96003261271,8.86490501188,0,0,
2816,2816,1.4080000,69116,1408,9744.0957,19144.1719,2.43239290252,3.82355769534,0,0,
2817,2817,1.4085000,69116,1408,9742.65332,19147.1777,1.11919367922,7.24139428706,0,0,
2818,2818,1.4090000,69117,1409,9744.0957,19152.4668,2.4320911561,11.0994409421,0,0,
2819,2819,1.4095000,69117,1409,9740.96973,19150.1816,-0.325379140771,8.02368865488,0,0,
2820,2820,1.4100000,69118,1410,9742.29199,19149.8223,0.805450600285,8.40646018961,0,0,
2821,2821,1.4105000,69118,1410,9739.04688,19156.3125,-1.81050326225,16.2800692226,0,0,
2822,2822,1.4110000,69119,1411,9739.16699,19153.3066,-0.703779229931,12.6135306176,0,0,
2823,2823,1.4115000,69119,1411,9737.96582,19155.4707,-1.28950467963,10.13488764,0,0,
2824,2824,1.4120000,69120,1412,9737.00391,19151.8652,-1.50446738708,1.80431495175,0,0,
2825,2825,1.4125000,69120,1412,9735.32129,19156.4316,-1.4799978786,3.41805212231,0,0,
2826,2826,1.4130000,69121,1413,9739.28809,19161.4805,2.49965111601,4.42309365617,0,0,
2827,2827,1.4135000,69121,1413,9740.00879,19169.0527,4.39025209498,6.41793706283,0,0,
2828,2828,1.4140000,69122,1414,9740.00879,19171.0957,4.29307441767,6.52583655203,0,0,
2829,2829,1.4145000,69122,1414,9739.88867,19174.1016,4.71172841396,9.69034153913,0,0,
2830,2830,1.4150000,69123,1415,9738.68652,19170.4961,3.97531083418,5.50690820115,0,0,
2831,2831,1.4155000,69123,1415,9735.80176,19166.8887,0.228446384146,3.03598651527,0,0,
2832,2832,1.4160000,69124,1416,9734.59961,19167.25,0.228050173361,2.78051177461,0,0,
2833,2833,1.4165000,69124,1416,9732.79688,19163.2832,-1.433989847,-0.643877214524,0,0,
2834,2834,1.4170000,69125,1417,9733.6377,19165.3262,0.317776128243,-2.24900576852,0,0,
2835,2835,1.4175000,69125,1417,9735.56152,19164.9668,2.04419909534,-5.01662244379,0,0,
2836,2836,1.4180000,69126,1418,9733.39746,19168.6934,0.00596358176034,-2.28652101023,0,0,
2837,2837,1.4185000,69126,1418,9733.27734,19167.6113,-0.563272109152,-4.93452309932,0,0,
2838,2838,1.4190000,69127,1419,9734.59961,19166.1699,0.0288574561343,-6.63407632543,0,0,
2839,2839,1.4195000,69127,1419,9735.08008,19166.4082,0.178868684943,-6.86620203033,0,0,
2840,2840,1.4200000,69128,1420,9734.23926,19169.1738,-0.935339144943,-5.86327743421,0,0,
2841,2841,1.4205000,69128,1420,9731.47461,19165.9277,-2.80832958379,-10.1529634419,0,0,
2842,2842,1.4210000,69129,1421,9731.11426,19165.3262,-2.82643904959,-10.9208412226,0,0,
2843,2843,1.4215000,69129,1421,9733.15723,19166.1699,-0.949011350297,-10.8516237898,0,0,
2844,2844,1.4220000,69130,1422,9735.08008,19164.6055,2.1570450703,-11.1860896047,0,0,
2845,2845,1.4225000,69130,1422,9732.55566,19163.4043,0.186806696017,-7.08899608815,0,0,
2846,2846,1.4230000,69131,1423,9729.6709,19167.4902,-3.65316658142,0.702091572717,0,0,
2847,2847,1.4235000,69131,1423,9727.14746,19163.4043,-5.61098491129,0.531018711588,0,0,
2848,2848,1.4240000,69132,1424,9730.15234,19164.125,-2.95900988209,3.89645674046,0,0,
2849,2849,1.4245000,69132,1424,9733.27734,19163.5254,-1.89032715209,4.68978686758,0,0,
2850,2850,1.4250000,69133,1425,9735.08008,19164.3652,-0.678250203415,5.249817884,0,0,
2851,2851,1.4255000,69133,1425,9732.43652,19164.8457,-2.6181131321,4.35130170327,0,0,
2852,2852,1.4260000,69134,1426,9728.83008,19165.0879,-4.20587592292,4.34666182209,0,0,
2853,2853,1.4265000,69134,1426,9724.62305,19167.1309,-8.08472556523,5.22396305302,0,0,
2854,2854,1.4270000,69135,1427,9724.86328,19168.6934,-5.69069504712,5.32310434998,0,0,
2855,2855,1.4275000,69135,1427,9725.22363,19162.8027,-4.1920701342,-1.77543791694,0,0,
2856,2856,1.4280000,69136,1428,9725.46387,19161.9629,-1.76269065459,-3.70125075235,0,0,
2857,2857,1.4285000,69136,1428,9727.3877,19159.1973,0.0446374489536,-5.30465261275,0,0,
2858,2858,1.4290000,69137,1429,9728.1084,19163.7637,0.0729575816878,-1.44234648586,0,0,
2859,2859,1.4295000,69137,1429,9727.2666,19165.207,-0.513705694575,0.530172309478,0,0,
2860,2860,1.4300000,69138,1430,9723.18066,19170.8574,-4.54206341251,6.34040327645,0,0,
2861,2861,1.4305000,69138,1430,9722.7002,19171.0957,-3.92483522956,7.16405176149,0,0,
2862,2862,1.4310000,69139,1431,9720.41602,19172.9004,-5.00686255899,8.90178740902,0,0,
2863,2863,1.4315000,69139,1431,9720.1748,19176.1465,-4.26597898617,7.69950017227,0,0,
2864,2864,1.4320000,69140,1432,9724.9834,19172.1777,0.462023681863,0.540591984823,0,0,
2865,2865,1.4325000,69140,1432,9724.50293,19170.377,0.695433760729,-3.40675559296,0,0,
2866,2866,1.4330000,69141,1433,9722.09863,19174.4629,-2.11440931913,-2.31655911419,0,0,
2867,2867,1.4335000,69141,1433,9719.57422,19174.584,-2.81920598066,-5.57018712023,0,0,
2868,2868,1.4340000,69142,1434,9715.96777,19175.7852,-4.82877455606,-3.78948259328,0,0,
2869,2869,1.4345000,69142,1434,9717.53027,19177.3477,-1.60317774085,-0.147809583822,0,0,
2870,2870,1.4350000,69143,1435,9721.25684,19179.0293,2.88674203284,3.08039128766,0,0,
2871,2871,1.4355000,69143,1435,9721.13672,19173.2598,2.27915797139,0.493924866703,0,0,
2872,2872,1.4360000,69144,1436,9721.0166,19164.3652,2.81938966681,-5.79293757102,0,0,
2873,2873,1.4365000,69144,1436,9718.49219,19164.3652,0.454063562018,-2.49748903839,0,0,
2874,2874,1.4370000,69145,1437,9713.32324,19168.6934,-3.24999163055,-0.140914475005,0,0,
2875,2875,1.4375000,69145,1437,9715.36719,19173.0215,-0.929187171516,2.58666121705,0,0,
2876,2876,1.4380000,69146,1438,9713.68457,19172.9004,-1.4017703735,1.81925883907,0,0,
2877,2877,1.4385000,69146,1438,9714.40527,19168.4531,-0.562679898372,-2.23459304338,0,0,
2878,2878,1.4390000,69147,1439,9715.12695,19167.9707,-0.157238525755,-1.6013695964,0,0,
2879,2879,1.4395000,69147,1439,9708.27539,19164.0059,-5.44770124244,-4.31860429362,0,0,
2880,2880,1.4400000,69148,1440,9707.6748,19168.0918,-4.40143864599,-1.0286355908,0,0,
2881,2881,1.4405000,69148,1440,9712.00098,19167.0098,1.33128969226,-1.73225928603,0,0,
2882,2882,1.4410000,69149,1441,9711.04004,19168.8125,0.9363625218,-0.00596739648185,0,0,
2883,2883,1.4415000,69149,1441,9710.67871,19173.9824,0.685782229459,3.38252783045,0,0,
2884,2884,1.4420000,69150,1442,9710.55957,19167.3711,2.09870866472,-1.92561355736,0,0,
2885,2885,1.4425000,69150,1442,9714.7666,19168.4531,6.81983943217,3.10218885375,0,0,
2886,2886,1.4430000,69151,1443,9717.16992,19167.8516,7.59923545142,4.98284390243,0,0,
2887,2887,1.4435000,69151,1443,9713.08301,19168.5723,3.46032988917,8.97257353817,0,0,
2888,2888,1.4440000,69152,1444,9709.47754,19169.2949,-0.668739301679,10.9563506379,0,0,
2889,2889,1.4445000,69152,1444,9709.71777,19174.7031,-1.8066095539,15.7237864315,0,0,
2890,2890,1.4450000,69153,1445,9711.04004,19176.0254,-0.432309873241,14.801619971,0,0,
2891,2891,1.4455000,69153,1445,9705.99121,19177.2285,-3.12864491508,12.9471224376,0,0,
2892,2892,1.4460000,69154,1446,9705.39062,19174.8223,-0.866568435441,9.0875244724,0,0,
2893,2893,1.4465000,69154,1446,9707.55371,19170.6152,1.611767234,3.62923176138,0,0,
2894,2894,1.4470000,69155,1447,9708.99707,19167.1309,3.73020708075,-0.305276966276,0,0,
2895,2895,1.4475000,69155,1447,9711.04004,19162.082,5.36670853858,-4.38749108009,0,0,
2896,2896,1.4480000,69156,1448,9706.23145,19163.2832,2.10542231801,-3.67543401181,0,0,
2897,2897,1.4485000,69156,1448,9711.16016,19162.9238,5.82319766881,-2.88220223669,0,0,
2898,2898,1.4490000,69157,1449,9708.51562,19166.8887,2.46814489738,-0.644262903003,0,0,
2899,2899,1.4495000,69157,1449,9706.23145,19170.377,0.820344786059,2.31936193002,0,0,
2900,2900,1.4500000,69158,1450,9700.94238,19173.0215,-3.13182113527,3.89702162626,0,0,
2901,2901,1.4505000,69158,1450,9701.66406,19173.6211,-1.27847502982,4.77459978027,0,0,
2902,2902,1.4510000,69159,1451,9702.86621,19169.6543,0.790542422044,1.35140069263,0,0,
2903,2903,1.4515000,69159,1451,9700.82324,19168.0918,-0.591420185421,-2.63743876645,0,0,
2904,2904,1.4520000,69160,1452,9703.58691,19171.5781,1.35848058164,-0.772679608728,0,0,
2905,2905,1.4525000,69160,1452,9702.86621,19176.2656,1.54495252073,1.35342437497,0,0,
2906,2906,1.4530000,69161,1453,9702.50488,19179.9922,1.15142349178,0.791532272805,0,0,
2907,2907,1.4535000,69161,1453,9699.13965,19179.873,-0.287650840319,-2.97983179558,0,0,
2908,2908,1.4540000,69162,1454,9698.05762,19179.1504,0.0942662991303,-3.9799132122,0,0,
2909,2909,1.4545000,69162,1454,9700.70215,19176.8672,3.02370006554,-4.63673615491,0,0,
2910,2910,1.4550000,69163,1455,9701.42383,19175.7852,3.51599690714,-4.04356610496,0,0,
2911,2911,1.4555000,69163,1455,9700.82324,19176.5059,2.56803890085,-0.184722833454,0,0,
2912,2912,1.4560000,69164,1456,9701.18359,19174.7031,3.38560946577,-0.0178027084058,0,0,
2913,2913,1.4565000,69164,1456,9699.50098,19180.5918,2.08311228522,5.60255239351,0,0,
2914,2914,1.4570000,69165,1457,9702.86621,19174.3418,5.75556929986,-3.63427400958,0,0,
2915,2915,1.4575000,69165,1457,9702.98633,19165.6875,4.31671045289,-12.3671186194,0,0,
2916,2916,1.4580000,69166,1458,9705.51074,19167.0098,6.10603359137,-9.92454532343,0,0,
2917,2917,1.4585000,69166,1458,9706.35254,19167.25,5.03887214427,-7.93183825564,0,0,
2918,2918,1.4590000,69167,1459,9700.94238,19167.4902,-1.22691115762,-6.37486590459,0,0,
2919,2919,1.4595000,69167,1459,9700.10156,19169.5332,-0.983546511883,-3.40408084641,0,0,
2920,2920,1.4600000,69168,1460,9702.14551,19167.6113,0.592808195502,-6.40987172146,0,0,
2921,2921,1.4605000,69168,1460,9701.06348,19168.0918,-0.879942006885,-5.35215337713,0,0,
2922,2922,1.4610000,69169,1461,9701.54395,19167.4902,-0.556860418812,-5.85838924736,0,0,
2923,2923,1.4615000,69169,1461,9702.14551,19169.5332,-0.670224016365,-5.19700657206,0,0,
2924,2924,1.4620000,69170,1462,9702.02441,19168.2129,-0.297995907017,-4.17179041603,0,0,
2925,2925,1.4625000,69170,1462,9698.7793,19168.0918,-3.17236294216,-1.17771429559,0,0,
2926,2926,1.4630000,69171,1463,9697.69727,19164.8457,-4.57200523559,-1.62455081903,0,0,
2927,2927,1.4635000,69171,1463,9699.74121,19167.4902,-1.5773418636,3.73840935389,0,0,
2928,2928,1.4640000,69172,1464,9698.53906,19169.2949,-2.7648220078,6.42909327103,0,0,
2929,2929,1.4645000,69172,1464,9702.86621,19168.9336,-0.626314295992,5.61171418848,0,0,
2930,2930,1.4650000,69173,1465,9702.74609,19167.6113,-1.60101658589,3.80229184613,0,0,
2931,2931,1.4655000,69173,1465,9702.98633,19167.0098,-0.0121440979163,2.28654386865,0,0,
2932,2932,1.4660000,69174,1466,9706.35254,19161.2402,3.62005362707,-1.91034177751,0,0,
2933,2933,1.4665000,69174,1466,9704.90918,19162.8027,0.816894680239,0.391534826047,0,0,
2934,2934,1.4670000,69175,1467,9713.08301,19160.3984,6.93016279247,-1.10720705916,0,0,
2935,2935,1.4675000,69175,1467,9711.64062,19161.6016,3.41202728215,1.15421077403,0,0,
2936,2936,1.4680000,69176,1468,9704.30859,19165.207,-2.34094970944,2.96770279146,0,0,
2937,2937,1.4685000,69176,1468,9701.9043,19170.6152,-5.78185648018,7.19086227125,0,0,
2938,2938,1.4690000,69177,1469,9698.41895,19175.7852,-8.21418345978,7.98125178184,0,0,
2939,2939,1.4695000,69177,1469,9698.53906,19179.0293,-6.56000277429,8.18060199542,0,0,
2940,2940,1.4700000,69178,1470,9697.93848,19172.4199,-5.37312516276,0.287374082393,0,0,
2941,2941,1.4705000,69178,1470,9699.25977,19171.8184,-3.6850989361,0.146800954583,0,0,
2942,2942,1.4710000,69179,1471,9699.25977,19167.7324,-3.29631649534,-2.32602131481,0,0,
2943,2943,1.4715000,69179,1471,9699.74121,19164.2441,-2.3550718251,-6.69818993408,0,0,
2944,2944,1.4720000,69180,1472,9702.62598,19162.6816,-1.08592205765,-8.60484067766,0,0,
2945,2945,1.4725000,69180,1472,9700.22168,19163.7637,-2.59718080223,-8.3072652038,0,0,
2946,2946,1.4730000,69181,1473,9703.94824,19168.4531,0.461001489789,-5.98479050182,0,0,
2947,2947,1.4735000,69181,1473,9700.94238,19167.9707,-0.985784446384,-7.66004328393,0,0,
2948,2948,1.4740000,69182,1474,9698.7793,19171.2168,-2.08666367921,-3.75300595384,0,0,
2949,2949,1.4745000,69182,1474,9700.10156,19170.2559,-1.04961696011,-2.56948809352,0,0,
2950,2950,1.4750000,69183,1475,9700.82324,19169.5332,-0.572585367419,-1.47839003571,0,0,
2951,2951,1.4755000,69183,1475,9703.58691,19165.3262,1.51402365941,-2.15531852,0,0,
2952,2952,1.4760000,69184,1476,9702.86621,19167.1309,0.876434840595,1.93020314714,0,0,
2953,2953,1.4765000,69184,1476,9700.82324,19170.7363,-0.578606298099,4.85085055203,0,0,
2954,2954,1.4770000,69185,1477,9701.42383,19169.0527,0.121242484405,1.81501827044,0,0,
2955,2955,1.4775000,69185,1477,9702.38574,19169.2949,0.195674153137,1.77396281222,0,0,
2956,2956,1.4780000,69186,1478,9702.38574,19169.5332,-0.0266345225929,1.03422174646,0,0,
2957,2957,1.4785000,69186,1478,9702.74609,19169.4141,-0.428220800481,0.889576479383,0,0,
2958,2958,1.4790000,69187,1479,9697.93848,19168.4531,-4.05661160194,-0.0695029669393,0,0,
2959,2959,1.4795000,69187,1479,9698.29785,19165.0879,-2.18677076414,-2.94855730712,0,0,
2960,2960,1.4800000,69188,1480,9700.82324,19161.2402,-0.0899101791958,-6.7309922501,0,0,
2961,2961,1.4805000,69188,1480,9702.98633,19165.3262,1.69978402055,-2.50185791932,0,0,
2962,2962,1.4810000,69189,1481,9702.98633,19167.7324,1.33614892094,-0.681706661789,0,0,
2963,2963,1.4815000,69189,1481,9703.34668,19169.5332,0.950451456412,-1.05373473015,0,0,
2964,2964,1.4820000,69190,1482,9701.54395,19171.5781,-0.132888486903,1.89024257162,0,0,
2965,2965,1.4825000,69190,1482,9696.73535,19171.3379,-3.38531731682,3.07415617739,0,0,
2966,2966,1.4830000,69191,1483,9693.49023,19171.2168,-5.68495431593,4.28188859578,0,0,
2967,2967,1.4835000,69191,1483,9696.25488,19172.7793,-1.83081670373,6.29465418169,0,0,
2968,2968,1.4840000,69192,1484,9694.45215,19179.3906,-2.58050099669,11.2806555628,0,0,
2969,2969,1.4845000,69192,1484,9692.88965,19181.0742,-4.90301971843,10.5425847659,0,0,
2970,2970,1.4850000,69193,1485,9696.49512,19173.3809,-1.00381230346,2.09911651981,0,0,
2971,2971,1.4855000,69193,1485,9700.82324,19168.2129,4.38535771026,-3.29658611547,0,0,
2972,2972,1.4860000,69194,1486,9699.50098,19163.6445,3.51431275322,-5.28081232051,0,0,
2973,2973,1.4865000,69194,1486,9698.05762,19159.1973,2.10314833646,-8.10710511079,0,0,
2974,2974,1.4870000,69195,1487,9698.89941,19161.4805,1.77763865052,-4.26713808874,0,0,
2975,2975,1.4875000,69195,1487,9698.53906,19165.5684,1.74937434634,0.192690377763,0,0,
2976,2976,1.4880000,69196,1488,9698.17871,19161.7207,4.25749289117,-4.53432171228,0,0,
2977,2977,1.4885000,69196,1488,9697.09668,19168.332,2.63342686028,0.986822430441,0,0,
2978,2978,1.4890000,69197,1489,9697.69727,19164.125,3.75436166608,-5.04900541682,0,0,
2979,2979,1.4895000,69197,1489,9700.10156,19164.9668,5.93833525573,-4.36130972866,0,0,
2980,2980,1.4900000,69198,1490,9698.29785,19165.4473,4.60290047283,-2.29760717049,0,0,
2981,2981,1.4905000,69198,1490,9699.50098,19165.8086,4.85314963413,-0.521626869369,0,0,
2982,2982,1.4910000,69199,1491,9698.05762,19165.6875,3.0960740554,1.52249016699,0,0,
2983,2983,1.4915000,69199,1491,9698.41895,19162.4434,3.16346049034,-1.73360515741,0,0,
2984,2984,1.4920000,69200,1492,9698.29785,19162.3223,1.22412266064,-2.12075661129,0,0,
2985,2985,1.4925000,69200,1492,9701.78418,19155.3496,4.79204148719,-8.6596449853,0,0,
2986,2986,1.4930000,69201,1493,9698.41895,19158.4746,0.480522214033,-6.92677352265,0,0,
2987,2987,1.4935000,69201,1493,9698.17871,19159.0762,1.85293748919,-6.10569079595,0,0,
2988,2988,1.4940000,69202,1494,9697.69727,19161,2.0862543732,-3.12844466672,0,0,
2989,2989,1.4945000,69202,1494,9695.53418,19164.2441,-0.431570845649,2.23687356211,0,0,
2990,2990,1.4950000,69203,1495,9697.09668,19165.3262,0.735735441813,4.71411089401,0,0,
2991,2991,1.4955000,69203,1495,9697.45703,19166.1699,0.391100579821,8.02883942768,0,0,
2992,2992,1.4960000,69204,1496,9694.57227,19164.3652,-1.52030194042,7.26215518959,0,0,
2993,2993,1.4965000,69204,1496,9695.6543,19164.0059,0.496921059523,6.00440906508,0,0,
2994,2994,1.4970000,69205,1497,9695.6543,19161.1191,0.584769460423,2.93938498954,0,0,
2995,2995,1.4975000,69205,1497,9694.33203,19162.5625,-1.10227730742,4.33995028974,0,0,
2996,2996,1.4980000,69206,1498,9694.8125,19161.9629,-0.434545336596,3.24956825145,0,0,
2997,2997,1.4985000,69206,1498,9696.85645,19160.5195,0.897906915727,2.3360483631,0,0,
2998,2998,1.4990000,69207,1499,9695.53418,19163.4043,0.756189373267,5.10472834554,0,0,
2999,2999,1.4995000,69207,1499,9695.77441,19163.6445,1.45282633759,5.39181590837,0,0,
3000,3000,1.5000000,69208,1500,9700.22168,19163.8848,4.04183296218,4.71158048637,0,0,
3001,3001,1.5005000,69208,1500,9695.6543,19163.043,-0.872471128301,2.49905676394,0,0,
3002,3002,1.5010000,69209,1501,9696.01465,19165.3262,-0.529723604627,3.24766311708,0,0,
3003,3003,1.5015000,69209,1501,9697.33691,19163.5254,0.161345688722,-0.486565306029,0,0,
3004,3004,1.5020000,69210,1502,9694.8125,19161.7207,-1.27003805693,-1.11257307978,0,0,
3005,3005,1.5025000,69210,1502,9696.97559,19164.7266,1.87207916074,3.21414199765,0,0,
3006,3006,1.5030000,69211,1503,9694.21191,19161.4805,-0.709195896495,1.75425914511,0,0,
3007,3007,1.5035000,69211,1503,9694.45215,19167.1309,-0.790856895342,7.25527747713,0,0,
3008,3008,1.5040000,69212,1504,9692.28809,19165.9277,-2.24074366566,4.73064800265,0,0,
3009,3009,1.5045000,69212,1504,9692.4082,19168.332,-3.17853837987,5.89024053537,0,0,
3010,3010,1.5050000,69213,1505,9692.52832,19164.6055,-3.57616911295,3.24976163745,0,0,
3011,3011,1.5055000,69213,1505,9695.89453,19167.6113,-0.0687188077282,5.59473300073,0,0,
3012,3012,1.5060000,69214,1506,9691.6875,19165.5684,-2.91797684802,4.62881703622,0,0,
3013,3013,1.5065000,69214,1506,9693.73047,19170.6152,-0.576059585064,8.27922469113,0,0,
3014,3014,1.5070000,69215,1507,9692.76855,19167.8516,-2.31030304267,4.02314335332,0,0,
3015,3015,1.5075000,69215,1507,9692.16797,19165.8086,-2.22831022031,0.61203195554,0,0,
3016,3016,1.5080000,69216,1508,9693.49023,19163.8848,1.43160780558,-2.3308457603,0,0,
3017,3017,1.5085000,69216,1508,9691.92773,19164.125,-0.266006036992,-4.04998058017,0,0,
3018,3018,1.5090000,69217,1509,9694.33203,19167.25,2.14700693027,-2.69926007253,0,0,
3019,3019,1.5095000,69217,1509,9695.29395,19166.1699,2.47017835573,-4.75187141761,0,0,
3020,3020,1.5100000,69218,1510,9692.88965,19163.6445,0.954308965985,-6.11665902317,0,0,
3021,3021,1.5105000,69218,1510,9692.88965,19164.3652,0.321792781793,-4.39155710674,0,0,
3022,3022,1.5110000,69219,1511,9691.92773,19161.3613,-0.350656900693,-5.10859232709,0,0,
3023,3023,1.5115000,69219,1511,9692.16797,19158.3555,-0.173137648416,-7.00113017934,0,0,
3024,3024,1.5120000,69220,1512,9690.72559,19158.3555,-2.55736485777,-6.78171677799,0,0,
3025,3025,1.5125000,69220,1512,9691.32715,19159.3184,-1.60583783507,-5.21680711054,0,0,
3026,3026,1.5130000,69221,1513,9691.6875,19159.7988,-1.1401664555,-7.00573683188,0,0,
3027,3027,1.5135000,69221,1513,9691.20605,19159.918,-0.0959092991456,-7.18428818538,0,0,
3028,3028,1.5140000,69222,1514,9692.04785,19157.5137,1.32671012517,-8.58780516871,0,0,
3029,3029,1.5145000,69222,1514,9694.93262,19157.2734,3.30577948515,-6.59540393898,0,0,
3030,3030,1.5150000,69223,1515,9693.12988,19158.8359,0.565416947639,-3.12975017279,0,0,
3031,3031,1.5155000,69223,1515,9694.33203,19156.0723,0.705670226303,-2.471172088,0,0,
3032,3032,1.5160000,69224,1516,9695.41309,19158.1152,1.99950741351,1.49196720724,0,0,
3033,3033,1.5165000,69224,1516,9695.89453,19155.1113,2.09444041236,-0.985473377493,0,0,
3034,3034,1.5170000,69225,1517,9692.28809,19155.5918,-1.53827029946,0.340054698806,0,0,
3035,3035,1.5175000,69225,1517,9688.80273,19155.4707,-4.68563192318,0.547391488846,0,0,
3036,3036,1.5180000,69226,1518,9689.40332,19155.9512,-3.71607520332,1.13924296356,0,0,
3037,3037,1.5185000,69226,1518,9687.84082,19153.668,-5.25724683725,0.0718461978123,0,0,
3038,3038,1.5190000,69227,1519,9692.52832,19155.8301,0.38769859565,2.13754763882,0,0,
3039,3039,1.5195000,69227,1519,9692.76855,19159.3184,0.720960008841,5.49954743401,0,0,
3040,3040,1.5200000,69228,1520,9692.52832,19158.5957,-1.17577678821,4.06881691505,0,0,
3041,3041,1.5205000,69228,1520,9697.57715,19156.793,3.32925388409,1.59496421489,0,0,
3042,3042,1.5210000,69229,1521,9695.05273,19158.4746,0.20518996848,1.92250865054,0,0,
3043,3043,1.5215000,69229,1521,9693.73047,19161.7207,-1.81018279658,3.30492707297,0,0,
3044,3044,1.5220000,69230,1522,9695.41309,19161.4805,0.531348058793,3.43062002065,0,0,
3045,3045,1.5225000,69230,1522,9695.17285,19161,0.460920350242,3.21809137608,0,0,
3046,3046,1.5230000,69231,1523,9693.61035,19162.2012,-0.750374345355,5.48790516385,0,0,
3047,3047,1.5235000,69231,1523,9695.29395,19161.4805,0.0472246668654,3.82137829839,0,0,
3048,3048,1.5240000,69232,1524,9699.25977,19160.0371,3.33058065787,1.92379105129,0,0,
3049,3049,1.5245000,69232,1524,9694.33203,19157.0332,-2.97494655244,-1.18963218896,0,0,
3050,3050,1.5250000,69233,1525,9697.93848,19157.5137,-0.902443242682,1.33146890725,0,0,
3051,3051,1.5255000,69233,1525,9693.97168,19157.0332,-4.96555304457,0.752711438652,0,0,
3052,3052,1.5260000,69234,1526,9694.21191,19162.2012,-3.17561857055,6.71945773581,0,0,
3053,3053,1.5265000,69234,1526,9692.04785,19160.1582,-5.01670191366,3.4726310859,0,0,
3054,3054,1.5270000,69235,1527,9696.01465,19162.2012,-1.93628021339,4.79666651597,0,0,
3055,3055,1.5275000,69235,1527,9697.45703,19158.957,-0.616707087477,1.01230881346,0,0,
3056,3056,1.5280000,69236,1528,9696.49512,19153.668,-0.214340164729,-3.92939156242,0,0,
3057,3057,1.5285000,69236,1528,9692.4082,19153.3066,-3.75664287349,-5.10275750019,0,0,
3058,3058,1.5290000,69237,1529,9692.88965,19154.0293,-3.04321385587,-5.26176036661,0,0,
3059,3059,1.5295000,69237,1529,9698.65918,19154.3887,1.76477592826,-4.70387206175,0,0,
3060,3060,1.5300000,69238,1530,9693.49023,19156.1914,-1.86897609659,-1.65577952084,0,0,
3061,3061,1.5305000,69238,1530,9694.8125,19158.5957,-0.968071225002,0.869751087918,0,0,
3062,3062,1.5310000,69239,1531,9693.37012,19155.2305,-1.78607343857,-0.490617232402,0,0,
3063,3063,1.5315000,69239,1531,9694.33203,19158.2363,-0.855314730643,2.44034451568,0,0,
3064,3064,1.5320000,69240,1532,9696.13477,19160.2793,-0.0512255355789,2.82512255303,0,0,
3065,3065,1.5325000,69240,1532,9697.81738,19159.3184,1.1135985854,0.868752393373,0,0,
3066,3066,1.5330000,69241,1533,9695.05273,19160.7598,-1.60560899916,-0.924941393514,0,0,
3067,3067,1.5335000,69241,1533,9692.4082,19158.4746,-2.44877997405,-4.19230671924,0,0,
3068,3068,1.5340000,69242,1534,9693.37012,19157.0332,-0.749676769719,-5.1681476376,0,0,
3069,3069,1.5345000,69242,1534,9697.09668,19157.1543,1.92941818339,-4.01772607318,0,0,
3070,3070,1.5350000,69243,1535,9696.73535,19155.7109,1.16682017585,-4.37823172743,0,0,
3071,3071,1.5355000,69243,1535,9695.05273,19158.7168,-1.04446679954,0.710951858054,0,0,
3072,3072,1.5360000,69244,1536,9696.85645,19161.4805,1.09441487224,3.37743326593,0,0,
3073,3073,1.5365000,69244,1536,9694.57227,19159.1973,-0.693651244231,0.927539873698,0,0,
3074,3074,1.5370000,69245,1537,9692.4082,19157.5137,-1.59763490108,-0.805597510979,0,0,
3075,3075,1.5375000,69245,1537,9693.61035,19159.7988,0.166305115437,0.773627763727,0,0,
3076,3076,1.5380000,69246,1538,9693.25,19158.1152,-0.209912871217,-1.35321490784,0,0,
3077,3077,1.5385000,69246,1538,9696.49512,19156.1914,2.27535605619,-2.2596930743,0,0,
3078,3078,1.5390000,69247,1539,9692.52832,19158.7168,-1.17869562249,-0.656347022628,0,0,
3079,3079,1.5395000,69247,1539,9693.49023,19158.7168,0.323258910987,-1.10891937108,0,0,
3080,3080,1.5400000,69248,1540,9692.52832,19164.8457,-1.30081526736,3.6378055562,0,0,
3081,3081,1.5405000,69248,1540,9691.56738,19163.7637,-2.00625941913,1.41668907826,0,0,
3082,3082,1.5410000,69249,1541,9695.53418,19162.9238,2.27897424992,-1.1792915571,0,0,
3083,3083,1.5415000,69249,1541,9694.21191,19160.5195,0.908726477976,-4.87579750453,0,0,
3084,3084,1.5420000,69250,1542,9694.45215,19164.6055,1.80969313389,-0.473136109678,0,0,
3085,3085,1.5425000,69250,1542,9695.53418,19166.4082,3.23738309083,1.21340824116,0,0,
3086,3086,1.5430000,69251,1543,9692.64941,19169.7754,1.33687810644,4.42185218162,0,0,
3087,3087,1.5435000,69251,1543,9691.56738,19163.6445,0.0757706342473,-1.90002763279,0,0,
3088,3088,1.5440000,69252,1544,9690.72559,19159.5566,-0.418262087565,-5.1129843015,0,0,
3089,3089,1.5445000,69252,1544,9692.76855,19158.3555,1.68016009327,-5.24834805614,0,0,
3090,3090,1.5450000,69253,1545,9691.08691,19157.2734,-0.837317345527,-3.97927765683,0,0,
3091,3091,1.5455000,69253,1545,9693.61035,19153.4277,2.13243781717,-6.37052960325,0,0,
3092,3092,1.5460000,69254,1546,9693.25,19153.7871,2.77069699282,-4.17180493003,0,0,
3093,3093,1.5465000,69254,1546,9695.41309,19157.0332,4.5875156013,-0.443577896662,0,0,
3094,3094,1.5470000,69255,1547,9693.25,19155.3496,1.12766563662,-1.46490298743,0,0,
3095,3095,1.5475000,69255,1547,9698.41895,19146.9355,5.34932386995,-7.14306071358,0,0,
3096,3096,1.5480000,69256,1548,9698.29785,19144.1719,5.81129279208,-6.79161135634,0,0,
3097,3097,1.5485000,69256,1548,9700.82324,19142.3691,7.65696735108,-7.32208590996,0,0,
3098,3098,1.5490000,69257,1549,9699.01953,19148.0176,4.60464427856,-1.84532506194,0,0,
3099,3099,1.5495000,69257,1549,9698.7793,19156.4316,2.38049490244,5.65961746133,0,0,
3100,3100,1.5500000,69258,1550,9695.53418,19164.0059,0.993073096501,11.8056350359,0,0,
3101,3101,1.5505000,69258,1550,9694.8125,19165.8086,-0.330004366373,11.4664265011,0,0,
3102,3102,1.5510000,69259,1551,9693.97168,19167.4902,-0.505427846929,12.8693948263,0,0,
3103,3103,1.5515000,69259,1551,9696.13477,19163.1641,1.07332078491,6.99302648769,0,0,
3104,3104,1.5520000,69260,1552,9698.05762,19163.043,1.4687147109,4.78387335016,0,0,
3105,3105,1.5525000,69260,1552,9694.69238,19169.6543,-2.00716403301,9.01442348351,0,0,
3106,3106,1.5530000,69261,1553,9697.57715,19172.7793,0.948652302328,7.33915743321,0,0,
3107,3107,1.5535000,69261,1553,9693.12988,19168.8125,-1.66936505412,1.6656681878,0,0,
3108,3108,1.5540000,69262,1554,9695.41309,19156.6738,0.607574004218,-8.94716952407,0,0,
3109,3109,1.5545000,69262,1554,9697.33691,19148.1387,0.920589216749,-14.1928519588,0,0,
3110,3110,1.5550000,69263,1555,9699.01953,19152.9473,1.93742718823,-7.18583366824,0,0,
3111,3111,1.5555000,69263,1555,9695.6543,19147.416,-1.5647434091,-9.07757724948,0,0,
3112,3112,1.5560000,69264,1556,9692.04785,19138.8828,-4.27635822641,-13.7132016215,0,0,
3113,3113,1.5565000,69264,1556,9693.73047,19128.5449,-1.61431042684,-18.0787635834,0,0,
3114,3114,1.5570000,69265,1557,9692.4082,19130.2285,-1.56653718231,-11.7196552656,0,0,
3115,3115,1.5575000,69265,1557,9692.76855,19137.6816,-0.9192350867,-2.44745792067,0,0,
3116,3116,1.5580000,69266,1558,9691.6875,19143.5703,-1.73130283103,4.42815698528,0,0,
3117,3117,1.5585000,69266,1558,9690.48535,19157.1543,-3.15650787595,16.9913480429,0,0,
3118,3118,1.5590000,69267,1559,9687.7207,19171.457,-4.00759365609,25.6544191369,0,0,
3119,3119,1.5595000,69267,1559,9685.91699,19179.9922,-4.43249738129,28.1472834427,0,0,
3120,3120,1.5600000,69268,1560,9685.43652,19182.998,-4.32530138624,24.2592927886,0,0,
3121,3121,1.5605000,69268,1560,9684.47559,19175.7852,-4.08656291978,13.4636930613,0,0,
3122,3122,1.5610000,69269,1561,9685.91699,19169.7754,-2.01723866379,4.63663281064,0,0,
3123,3123,1.5615000,69269,1561,9689.2832,19168.0918,1.70347928898,0.853640122907,0,0,
3124,3124,1.5620000,69270,1562,9691.6875,19169.5332,4.23544795571,0.830990200944,0,0,
3125,3125,1.5625000,69270,1562,9688.68262,19168.5723,1.73667495665,-0.829231591948,0,0,
3126,3126,1.5630000,69271,1563,9692.88965,19155.4707,6.31499672843,-11.731421712,0,0,
3127,3127,1.5635000,69271,1563,9692.28809,19141.4082,4.76400869615,-20.4165803942,0,0,
3128,3128,1.5640000,69272,1564,9692.04785,19136.5996,3.91077417825,-19.716604609,0,0,
3129,3129,1.5645000,69272,1564,9694.45215,19132.6328,4.90158286939,-18.5083829355,0,0,
3130,3130,1.5650000,69273,1565,9693.25,19130.8301,2.3387811906,-14.455908761,0,0,
3131,3131,1.5655000,69273,1565,9697.81738,19135.1562,5.40764406755,-6.46133189834,0,0,
3132,3132,1.5660000,69274,1566,9698.29785,19140.084,5.38780227941,0.435663599128,0,0,
3133,3133,1.5665000,69274,1566,9693.25,19149.0996,-0.194786662388,8.48977638463,0,0,
3134,3134,1.5670000,69275,1567,9690.12402,19157.7539,-3.54217413768,15.3102571739,0,0,
3135,3135,1.5675000,69275,1567,9685.67676,19164.125,-7.58457337659,20.1927243382,0,0,
3136,3136,1.5680000,69276,1568,9691.08691,19167.6113,-0.763632314185,20.6112268867,0,0,
3137,3137,1.5685000,69276,1568,9688.80273,19171.8184,-2.35023821573,19.5180399494,0,0,
3138,3138,1.5690000,69277,1569,9690.72559,19173.2598,-0.207502674185,14.4966496829,0,0,
3139,3139,1.5695000,69277,1569,9690.24512,19169.4141,-1.42998599237,5.99742547636,0,0,
3140,3140,1.5700000,69278,1570,9690.48535,19160.3984,0.963805706174,-4.38798190137,0,0,
3141,3141,1.5705000,69278,1570,9688.32129,19152.4668,-1.25854488576,-11.2471823374,0,0,
3142,3142,1.5710000,69279,1571,9685.43652,19152.1055,-2.81138697153,-8.90487069402,0,0,
3143,3143,1.5715000,69279,1571,9687.84082,19158.5957,-0.808283999881,-1.91580746123,0,0,
3144,3144,1.5720000,69280,1572,9691.44629,19161.7207,1.29670001348,-0.297100137094,0,0,
3145,3145,1.5725000,69280,1572,9690.60547,19157.3945,0.639669540795,-5.60579501411,0,0,
3146,3146,1.5730000,69281,1573,9690.48535,19151.9844,0.18110225901,-11.7538260369,0,0,
3147,3147,1.5735000,69281,1573,9694.21191,19144.291,4.84088032266,-15.9204503432,0,0,
3148,3148,1.5740000,69282,1574,9694.33203,19138.5215,3.60626904067,-15.5948370589,0,0,
3149,3149,1.5745000,69282,1574,9693.00977,19141.6465,0.447447488289,-8.26523340225,0,0,
3150,3150,1.5750000,69283,1575,9692.64941,19146.6953,-0.531633368526,-2.68214000198,0,0,
3151,3151,1.5755000,69283,1575,9694.8125,19150.9023,1.36008749801,3.41356504679,0,0,
3152,3152,1.5760000,69284,1576,9692.16797,19154.75,-0.793460355063,7.73800970102,0,0,
3153,3153,1.5765000,69284,1576,9689.88379,19162.5625,-2.72440693817,14.931751553,0,0,
3154,3154,1.5770000,69285,1577,9688.80273,19169.7754,-2.55429098035,17.723657373,0,0,
3155,3155,1.5775000,69285,1577,9691.6875,19169.8945,-0.0978914877148,12.2451002495,0,0,
3156,3156,1.5780000,69286,1578,9692.76855,19167.0098,0.479515335692,5.78430174175,0,0,
3157,3157,1.5785000,69286,1578,9693.12988,19162.9238,-0.227343999936,-1.17296796661,0,0,
3158,3158,1.5790000,69287,1579,9692.88965,19161.3613,0.124359780074,-6.29084282094,0,0,
3159,3159,1.5795000,69287,1579,9693.25,19160.0371,0.207449881337,-8.68240447679,0,0,
3160,3160,1.5800000,69288,1580,9692.52832,19165.9277,-1.43662164889,-4.45830887512,0,0,
3161,3161,1.5805000,69288,1580,9692.88965,19163.7637,-1.47914015187,-4.96826051526,0,0,
3162,3162,1.5810000,69289,1581,9691.56738,19164.9668,-3.40949642194,-3.44383503323,0,0,
3163,3163,1.5815000,69289,1581,9694.8125,19165.5684,-1.22346726267,-3.40435996168,0,0,
3164,3164,1.5820000,69290,1582,9692.52832,19160.7598,-3.51731600637,-7.75226390396,0,0,
3165,3165,1.5825000,69290,1582,9691.92773,19164.7266,-3.17174677498,-3.36364012643,0,0,
3166,3166,1.5830000,69291,1583,9696.01465,19167.7324,0.359447021919,1.62845668315,0,0,
3167,3167,1.5835000,69291,1583,9698.41895,19164.2441,1.60330286996,1.03009857585,0,0,
3168,3168,1.5840000,69292,1584,9699.13965,19164.4863,1.27244274663,1.84158377734,0,0,
3169,3169,1.5845000,69292,1584,9700.94238,19165.3262,1.07983403496,2.40650334376,0,0,
3170,3170,1.5850000,69293,1585,9700.22168,19166.0488,-0.855849506519,3.05325112624,0,0,
3171,3171,1.5855000,69293,1585,9701.06348,19167.1309,-1.69546542176,2.30505333361,0,0,
3172,3172,1.5860000,69294,1586,9704.42871,19162.8027,1.06982431638,-3.02121962148,0,0,
3173,3173,1.5865000,69294,1586,9706.23145,19164.2441,2.09949597684,-3.9867830713,0,0,
3174,3174,1.5870000,69295,1587,9707.6748,19162.9238,1.92541600363,-6.29055086685,0,0,
3175,3175,1.5875000,69295,1587,9709.35645,19164.8457,1.83423962446,-3.85919235428,0,0,
3176,3176,1.5880000,69296,1588,9707.43359,19170.377,-1.26952750423,0.902332831074,0,0,
3177,3177,1.5885000,69296,1588,9708.15527,19170.9766,-1.09759881214,-0.658098593488,0,0,
3178,3178,1.5890000,69297,1589,9711.28027,19170.2559,0.245846852306,-3.70682374087,0,0,
3179,3179,1.5895000,69297,1589,9710.07812,19176.627,-2.62290865379,0.598405096948,0,0,
3180,3180,1.5900000,69298,1590,9715.72754,19179.6309,2.67682690363,2.80374547166,0,0,
3181,3181,1.5905000,69298,1590,9716.68945,19179.873,1.70868586932,2.56386484104,0,0,
3182,3182,1.5910000,69299,1591,9716.92969,19178.1895,1.00344701646,0.754924837511,0,0,
3183,3183,1.5915000,69299,1591,9719.21387,19175.7852,0.282586982932,-2.88736948747,0,0,
3184,3184,1.5920000,69300,1592,9719.81445,19179.6309,-2.30882646401,-1.2195158016,0,0,
3185,3185,1.5925000,69300,1592,9720.65625,19177.9473,-2.47970198607,-3.55927570611,0,0,
3186,3186,1.5930000,69301,1593,9722.45898,19180.4727,-2.36480437768,-2.68257360625,0,0,
3187,3187,1.5935000,69301,1593,9722.5791,19183.3574,-2.72573269027,0.631702982654,0,0,
3188,3188,1.5940000,69302,1594,9725.22363,19181.5547,-1.95423004386,0.608059113208,0,0,
3189,3189,1.5945000,69302,1594,9724.2627,19182.0352,-4.73985864155,0.589137613918,0,0,
3190,3190,1.5950000,69303,1595,9728.1084,19180.3535,-2.57027907211,-3.152281108,0,0,
3191,3191,1.5955000,69303,1595,9729.31055,19181.6738,-2.83935616248,-1.80763938438,0,0,
3192,3192,1.5960000,69304,1596,9727.98828,19181.6738,-4.08354160987,-1.90166842399,0,0,
3193,3193,1.5965000,69304,1596,9728.70996,19181.4355,-3.83371862894,-2.26107509954,0,0,
3194,3194,1.5970000,69305,1597,9730.99316,19178.791,-1.95384814729,-6.09559122671,0,0,
3195,3195,1.5975000,69305,1597,9730.63281,19176.1465,-3.93206448868,-9.16843955116,0,0,
3196,3196,1.5980000,69306,1598,9733.39746,19177.5879,-2.5926380207,-7.12063123482,0,0,
3197,3197,1.5985000,69306,1598,9732.0752,19181.0742,-5.09705585256,-3.9457394438,0,0,
3198,3198,1.5990000,69307,1599,9731.71484,19179.1504,-5.00890996783,-7.25381370953,0,0,
3199,3199,1.5995000,69307,1599,9733.51758,19182.1562,-3.71489404402,-4.62411241435,0,0,
3200,3200,1.6000000,69308,1600,9729.91113,19182.3965,-7.41214793274,-5.60310240256,0,0,
3201,3201,1.6005000,69308,1600,9737.00391,19179.0293,-1.4565178628,-5.7686627826,0,0,
3202,3202,1.6010000,69309,1601,9737.60449,19172.4199,-2.00047679407,-9.53035249718,0,0,
3203,3203,1.6015000,69309,1601,9738.44629,19170.8574,-2.91478567376,-8.67898910985,0,0,
3204,3204,1.6020000,69310,1602,9738.56641,19172.9004,-2.91048389795,-3.95260019998,0,0,
3205,3205,1.6025000,69310,1602,9738.68652,19175.6641,-2.4612018656,-0.259761003629,0,0,
3206,3206,1.6030000,69311,1603,9738.20605,19178.791,-3.7082973814,5.04437710979,0,0,
3207,3207,1.6035000,69311,1603,9738.32617,19177.9473,-3.9876371247,7.74863204302,0,0,
3208,3208,1.6040000,69312,1604,9733.75879,19173.0215,-7.49642668227,4.67209502659,0,0,
3209,3209,1.6045000,69312,1604,9734.59961,19166.1699,-6.49831006212,0.188487296157,0,0,
3210,3210,1.6050000,69313,1605,9732.43652,19165.8086,-7.22945919442,2.25843308274,0,0,
3211,3211,1.6055000,69313,1605,9730.27246,19167.4902,-8.23559141534,4.4452392223,0,0,
3212,3212,1.6060000,69314,1606,9726.06543,19171.2168,-9.68777792624,8.56697153731,0,0,
3213,3213,1.6065000,69314,1606,9726.18555,19172.6602,-6.66933936105,7.97717732608,0,0,
3214,3214,1.6070000,69315,1607,9730.15234,19176.5059,-1.28511322162,10.3725332716,0,0,
3215,3215,1.6075000,69315,1607,9731.35449,19178.1895,0.933151921323,11.1801049652,0,0,
3216,3216,1.6080000,69316,1608,9733.03711,19172.0586,3.8255604981,4.69984165943,0,0,
3217,3217,1.6085000,69316,1608,9734.71973,19167.0098,6.26863872244,0.0888963929722,0,0,
3218,3218,1.6090000,69317,1609,9736.7627,19163.043,7.62424114417,-2.99434289778,0,0,
3219,3219,1.6095000,69317,1609,9734.23926,19160.8809,5.44994152931,-4.21734219051,0,0,
3220,3220,1.6100000,69318,1610,9736.04199,19157.9941,7.78902306898,-3.82866841545,0,0,
3221,3221,1.6105000,69318,1610,9739.64746,19152.8262,10.8410177293,-4.4455275545,0,0,
3222,3222,1.6110000,69319,1611,9739.76855,19141.8887,11.1521435869,-9.01200074365,0,0,
3223,3223,1.6115000,69319,1611,9738.68652,19135.998,8.66572238799,-9.38651011423,0,0,
3224,3224,1.6120000,69320,1612,9735.68164,19135.5176,4.90926445675,-6.34723382318,0,0,
3225,3225,1.6125000,69320,1612,9739.88867,19136.1191,9.09147330666,-1.17157674831,0,0,
3226,3226,1.6130000,69321,1613,9735.32129,19132.5117,4.7881862466,-1.39408717413,0,0,
3227,3227,1.6135000,69321,1613,9733.99902,19127.9434,4.99507355739,-0.333204884987,0,0,
3228,3228,1.6140000,69322,1614,9735.56152,19128.5449,6.34201581085,6.58362028812,0,0,
3229,3229,1.6145000,69322,1614,9737.72461,19131.3105,8.12580107613,12.1707431879,0,0,
3230,3230,1.6150000,69323,1615,9733.99902,19133.2324,4.38986212812,14.7560040014,0,0,
3231,3231,1.6155000,69323,1615,9734.95996,19134.7949,5.72654365192,17.4565671329,0,0,
3232,3232,1.6160000,69324,1616,9739.40723,19130.709,10.8230956796,15.0187407876,0,0,
3233,3233,1.6165000,69324,1616,9745.29785,19125.1797,15.2900926933,11.703691058,0,0,
3234,3234,1.6170000,69325,1617,9739.40723,19126.502,9.22428015295,13.5569582765,0,0,
3235,3235,1.6175000,69325,1617,9740.12891,19131.0684,8.91432667436,17.4264824738,0,0,
3236,3236,1.6180000,69326,1618,9735.32129,19134.0742,3.8789875684,19.1823733655,0,0,
3237,3237,1.6185000,69326,1618,9737.48438,19132.6328,5.85067042401,16.1416148289,0,0,
3238,3238,1.6190000,69327,1619,9741.45117,19130.3496,9.65585448376,12.3543838356,0,0,
3239,3239,1.6195000,69327,1619,9743.85547,19135.2754,10.4618152548,14.9898689871,0,0,
3240,3240,1.6200000,69328,1620,9737.60449,19136.2383,4.48363261479,13.2764681219,0,0,
3241,3241,1.6205000,69328,1620,9738.44629,19125.9004,3.68144400001,5.78123300558,0,0,
3242,3242,1.6210000,69329,1621,9745.05762,19115.4434,8.57090490204,-0.906497155094,0,0,
3243,3243,1.6215000,69329,1621,9743.49512,19120.4922,5.12425684935,4.98867133128,0,0,
3244,3244,1.6220000,69330,1622,9736.7627,19138.6426,-0.820706679065,20.2201329632,0,0,
3245,3245,1.6225000,69330,1622,9730.27246,19147.416,-5.11594279951,23.6002097957,0,0,
3246,3246,1.6230000,69331,1623,9728.9502,19151.5039,-5.1761037687,23.40566396,0,0,
3247,3247,1.6235000,69331,1623,9729.55078,19157.5137,-3.57827212966,26.0942003502,0,0,
3248,3248,1.6240000,69332,1624,9724.02148,19157.2734,-6.10497115155,21.6173604539,0,0,
3249,3249,1.6245000,69332,1624,9725.7041,19153.7871,-3.69324981923,14.6386681987,0,0,
3250,3250,1.6250000,69333,1625,9732.67676,19159.4375,3.61134091122,14.986259645,0,0,
3251,3251,1.6255000,69333,1625,9734.83984,19162.5625,5.00491308536,11.3018880805,0,0,
3252,3252,1.6260000,69334,1626,9737.84473,19160.3984,7.59126962805,3.69340688153,0,0,
3253,3253,1.6265000,69334,1626,9737.96582,19163.7637,6.74380608503,0.342066913238,0,0,
3254,3254,1.6270000,69335,1627,9737.24414,19151.8652,4.22900300966,-14.6641638272,0,0,
3255,3255,1.6275000,69335,1627,9737.36426,19147.6582,3.14130732255,-19.6996190914,0,0,
3256,3256,1.6280000,69336,1628,9733.51758,19157.5137,-0.677346375,-11.691574242,0,0,
3257,3257,1.6285000,69336,1628,9730.03223,19168.6934,-3.48917877678,-4.73937962938,0,0,
3258,3258,1.6290000,69337,1629,9731.71484,19176.627,-2.3923666376,-2.52981146797,0,0,
3259,3259,1.6295000,69337,1629,9733.6377,19183.5977,-0.26858341309,-2.49172911261,0,0,
3260,3260,1.6300000,69338,1630,9734.95996,19186.9629,0.609703582811,-4.24300042044,0,0,
3261,3261,1.6305000,69338,1630,9737.96582,19183.959,2.05402039699,-10.2146062193,0,0,
3262,3262,1.6310000,69339,1631,9734.23926,19178.6699,-1.18438930341,-15.8840519811,0,0,
3263,3263,1.6315000,69339,1631,9733.6377,19172.1777,-2.48620080805,-23.2543352392,0,0,
3264,3264,1.6320000,69340,1632,9736.40234,19167.8516,-0.691372278241,-29.3915571644,0,0,
3265,3265,1.6325000,69340,1632,9734.95996,19158.7168,-2.83092557894,-36.962455635,0,0,
3266,3266,1.6330000,69341,1633,9734.95996,19155.1113,-2.42986293554,-38.4950223588,0,0,
3267,3267,1.6335000,69341,1633,9739.16699,19153.668,1.49834071648,-35.9635949011,0,0,
3268,3268,1.6340000,69342,1634,9738.32617,19150.543,-0.960666268321,-34.3569952239,0,0,
3269,3269,1.6345000,69342,1634,9736.7627,19156.6738,-3.54346021465,-26.951080217,0,0,
3270,3270,1.6350000,69343,1635,9734.59961,19155.8301,-5.48811282504,-27.0876607357,0,0,
3271,3271,1.6355000,69343,1635,9738.20605,19155.8301,-2.75727651073,-25.2805835855,0,0,
3272,3272,1.6360000,69344,1636,9743.13379,19158.957,0.830757966828,-19.9235040269,0,0,
3273,3273,1.6365000,69344,1636,9747.58105,19153.4277,2.40769332507,-22.1057851254,0,0,
3274,3274,1.6370000,69345,1637,9749.98535,19147.8984,3.82265418369,-25.3508682909,0,0,
3275,3275,1.6375000,69345,1637,9749.26465,19147.2969,0.614138851209,-24.1323632291,0,0,
3276,3276,1.6380000,69346,1638,9751.30762,19148.0176,0.823562364525,-21.2379608059,0,0,
3277,3277,1.6385000,69346,1638,9748.30273,19146.0957,-4.06431696674,-20.3039251128,0,0,
3278,3278,1.6390000,69347,1639,9743.49512,19146.2148,-9.16216123153,-17.6188473696,0,0,
3279,3279,1.6395000,69347,1639,9740.48926,19147.1777,-12.1921342359,-15.4515638044,0,0,
3280,3280,1.6400000,69348,1640,9741.09082,19145.0137,-9.77866788533,-15.4226929685,0,0,
3281,3281,1.6405000,69348,1640,9740.96973,19145.9746,-10.8290953107,-7.97059951163,0,0,
3282,3282,1.6410000,69349,1641,9748.30273,19148.498,-5.77395448206,-0.71442684754,0,0,
3283,3283,1.6415000,69349,1641,9744.33594,19157.5137,-9.96721395619,7.02772213632,0,0,
3284,3284,1.6420000,69350,1642,9740.72949,19161.8418,-11.2349756539,7.42824219847,0,0,
3285,3285,1.6425000,69350,1642,9739.40723,19162.6816,-10.1072842578,5.85878320073,0,0,
3286,3286,1.6430000,69351,1643,9742.77344,19160.0371,-6.85590421234,3.7941214184,0,0,
3287,3287,1.6435000,69351,1643,9742.17285,19164.125,-7.7072574161,8.89915794559,0,0,
3288,3288,1.6440000,69352,1644,9740.12891,19162.082,-7.6351254063,8.42292460944,0,0,
3289,3289,1.6445000,69352,1644,9740.85059,19161.3613,-7.64418689124,9.60705974183,0,0,
3290,3290,1.6450000,69353,1645,9735.92188,19163.5254,-12.1641977249,10.7346515723,0,0,
3291,3291,1.6455000,69353,1645,9734.59961,19161.1191,-12.3255049114,7.3196198848,0,0,
3292,3292,1.6460000,69354,1646,9734.71973,19156.6738,-10.493406739,4.01140283646,0,0,
3293,3293,1.6465000,69354,1646,9741.81152,19160.5195,-3.07316542785,6.26294049243,0,0,
3294,3294,1.6470000,69355,1647,9743.01367,19161.4805,-2.43914567742,8.64533017949,0,0,
3295,3295,1.6475000,69355,1647,9742.5332,19157.3945,-3.06817905822,6.00586131003,0,0,
3296,3296,1.6480000,69356,1648,9749.86523,19157.875,3.72404692225,5.91103762869,0,0,
3297,3297,1.6485000,69356,1648,9746.86035,19157.7539,0.731460704708,4.91240548779,0,0,
3298,3298,1.6490000,69357,1649,9742.77344,19158.2363,-4.06199891983,4.88785564124,0,0,
3299,3299,1.6495000,69357,1649,9743.85547,19153.3066,-2.86083439726,0.326157454521,0,0,
3300,3300,1.6500000,69358,1650,9742.05176,19157.1543,-4.27610960626,5.75177379476,0,0,
3301,3301,1.6505000,69358,1650,9744.0957,19155.2305,-2.90837491928,7.37837680577,0,0,
3302,3302,1.6510000,69359,1651,9743.49512,19156.1914,-1.83412500621,12.4459230275,0,0,
3303,3303,1.6515000,69359,1651,9745.05762,19157.5137,-0.591038102852,15.6236132471,0,0,
3304,3304,1.6520000,69360,1652,9746.37988,19156.5527,-0.156324911333,14.3009768721,0,0,
3305,3305,1.6525000,69360,1652,9748.66309,19156.1914,1.60879418528,15.2633846106,0,0,
3306,3306,1.6530000,69361,1653,9744.57617,19151.5039,-1.53619592832,11.3113885138,0,0,
3307,3307,1.6535000,69361,1653,9746.13965,19153.9082,0.0847470898898,14.6992649773,0,0,
3308,3308,1.6540000,69362,1654,9746.13965,19153.1855,-0.117543162614,15.4465436597,0,0,
3309,3309,1.6545000,69362,1654,9746.01855,19156.4316,-0.147068070215,16.1499268224,0,0,
3310,3310,1.6550000,69363,1655,9743.85547,19156.793,-1.1321975014,14.7210745524,0,0,
3311,3311,1.6555000,69363,1655,9744.69629,19156.0723,-0.644657347663,13.092297757,0,0,
3312,3312,1.6560000,69364,1656,9742.65332,19161,-2.39772514515,16.4883934732,0,0,
3313,3313,1.6565000,69364,1656,9742.17285,19161.4805,-2.96070861218,16.9889655183,0,0,
3314,3314,1.6570000,69365,1657,9746.13965,19159.5566,2.22544945278,13.7228437883,0,0,
3315,3315,1.6575000,69365,1657,9745.53809,19157.2734,1.99914041917,9.30729302822,0,0,
3316,3316,1.6580000,69366,1658,9747.94238,19157.1543,4.41770181947,7.4498968043,0,0,
3317,3317,1.6585000,69366,1658,9743.49512,19158.957,1.03284217949,8.06155044434,0,0,
3318,3318,1.6590000,69367,1659,9744.33594,19158.957,3.2315464945,6.49980452192,0,0,
3319,3319,1.6595000,69367,1659,9746.01855,19157.1543,5.08423343559,2.66365218769,0,0,
3320,3320,1.6600000,69368,1660,9748.42285,19158.957,8.01937417199,3.26411618645,0,0,
3321,3321,1.6605000,69368,1660,9748.30273,19158.7168,6.42593113854,5.08207945509,0,0,
3322,3322,1.6610000,69369,1661,9747.46094,19159.5566,3.1396121567,6.80465058405,0,0,
3323,3323,1.6615000,69369,1661,9749.14355,19164.8457,5.08655018873,7.76784525186,0,0,
3324,3324,1.6620000,69370,1662,9748.90332,19162.8027,6.39723784594,1.57545384314,0,0,
3325,3325,1.6625000,69370,1662,9746.86035,19162.2012,5.71764967158,-1.01536243372,0,0,
3326,3326,1.6630000,69371,1663,9750.70703,19162.8027,7.87290433648,-0.0178933086332,0,0,
3327,3327,1.6635000,69371,1663,9750.10547,19158.957,6.32526026564,-2.95036008538,0,0,
3328,3328,1.6640000,69372,1664,9751.90918,19161.7207,8.65146592077,1.33195688473,0,0,
3329,3329,1.6645000,69372,1664,9752.02832,19164.7266,6.69239722362,5.07679213047,0,0,
3330,3330,1.6650000,69373,1665,9753.35059,19164.0059,6.87632833659,2.76239208705,0,0,
3331,3331,1.6655000,69373,1665,9752.99121,19164.9668,5.26356679626,2.41458986145,0,0,
3332,3332,1.6660000,69374,1666,9750.82715,19165.0879,2.65927867346,2.51212110607,0,0,
3333,3333,1.6665000,69374,1666,9752.50977,19162.6816,2.59753299228,-2.42009760453,0,0,
3334,3334,1.6670000,69375,1667,9752.26953,19165.207,1.43047895344,0.288665146268,0,0,
3335,3335,1.6675000,69375,1667,9751.30762,19166.7695,0.320542293233,2.03219737454,0,0,
3336,3336,1.6680000,69376,1668,9756.11621,19163.6445,3.5611679255,-2.59024206823,0,0,
3337,3337,1.6685000,69376,1668,9753.71191,19163.6445,1.96791851875,-4.13764295267,0,0,
3338,3338,1.6690000,69377,1669,9752.02832,19157.2734,0.232246688436,-10.4622000313,0,0,
3339,3339,1.6695000,69377,1669,9757.07715,19151.5039,4.06284987124,-14.2683566721,0,0,
3340,3340,1.6700000,69378,1670,9756.83691,19149.8223,3.18847419794,-13.8064031345,0,0,
3341,3341,1.6705000,69378,1670,9756.23633,19153.4277,0.951634681417,-6.55559132053,0,0,
3342,3342,1.6710000,69379,1671,9755.51465,19157.6348,1.08690611389,0.461483344932,0,0,
3343,3343,1.6715000,69379,1671,9756.83691,19163.6445,1.33248683778,6.52343679087,0,0,
3344,3344,1.6720000,69380,1672,9755.75488,19168.5723,-0.720358761818,9.17469509492,0,0,
3345,3345,1.6725000,69380,1672,9757.67871,19167.6113,0.390954095589,7.50550094722,0,0,
3346,3346,1.6730000,69381,1673,9755.39453,19167.4902,-0.613918686546,6.41719520947,0,0,
3347,3347,1.6735000,69381,1673,9755.51465,19165.0879,-0.774987992965,3.02453993251,0,0,
3348,3348,1.6740000,69382,1674,9754.67285,19160.5195,-1.63148664004,-0.571706155271,0,0,
3349,3349,1.6745000,69382,1674,9755.39453,19158.957,-0.858174546873,-4.13349373673,0,0,
3350,3350,1.6750000,69383,1675,9754.67285,19160.5195,-0.538672656405,-3.62565502534,0,0,
3351,3351,1.6755000,69383,1675,9754.07227,19162.082,-1.62997344564,-2.63196164439,0,0,
3352,3352,1.6760000,69384,1676,9755.99512,19169.2949,0.12178230599,1.97026630477,0,0,
3353,3353,1.6765000,69384,1676,9754.91406,19175.5449,-1.56145582039,6.72500242609,0,0,
3354,3354,1.6770000,69385,1677,9753.83203,19179.1504,-2.07605055075,7.36882383491,0,0,
3355,3355,1.6775000,69385,1677,9752.02832,19178.0684,-2.86062849865,2.84109886541,0,0,
3356,3356,1.6780000,69386,1678,9753.95215,19169.7754,-0.796346769331,-7.1164367691,0,0,
3357,3357,1.6785000,69386,1678,9749.98535,19163.6445,-2.55978956306,-13.1840730929,0,0,
3358,3358,1.6790000,69387,1679,9753.95215,19158.2363,2.09311876452,-17.4384737545,0,0,
3359,3359,1.6795000,69387,1679,9757.67871,19154.75,4.99310655095,-19.6017810692,0,0,
3360,3360,1.6800000,69388,1680,9756.11621,19153.3066,3.56494396087,-19.3475472842,0,0,
3361,3361,1.6805000,69388,1680,9754.3125,19148.0176,1.11661468763,-19.1798221494,0,0,
3362,3362,1.6810000,69389,1681,9753.23145,19144.7715,-1.25125536904,-17.6523257012,0,0,
3363,3363,1.6815000,69389,1681,9753.35059,19139.002,-0.539256870323,-21.9335489504,0,0,
3364,3364,1.6820000,69390,1682,9755.03418,19136.2383,2.68832841648,-22.011491305,0,0,
3365,3365,1.6825000,69390,1682,9754.43262,19143.0898,3.52034972871,-13.0747346166,0,0,
3366,3366,1.6830000,69391,1683,9755.99512,19149.3398,3.31489825667,-4.57863631088,0,0,
3367,3367,1.6835000,69391,1683,9755.87598,19148.6191,2.7825369081,-2.58521964403,0,0,
3368,3368,1.6840000,69392,1684,9752.99121,19157.5137,1.03451338731,6.80341402402,0,0,
3369,3369,1.6845000,69392,1684,9753.35059,19161,0.631389656673,9.99922913991,0,0,
3370,3370,1.6850000,69393,1685,9757.55859,19157.6348,3.89725978713,5.76489938602,0,0,
3371,3371,1.6855000,69393,1685,9757.31738,19158.1152,2.88938378319,5.30592283604,0,0,
3372,3372,1.6860000,69394,1686,9758.87988,19158.957,3.93246015654,6.20679357147,0,0,
3373,3373,1.6865000,69394,1686,9760.20215,19153.7871,3.01699666137,0.123716220096,0,0,
3374,3374,1.6870000,69395,1687,9757.91895,19151.2637,-0.0293485681626,-1.26320126259,0,0,
3375,3375,1.6875000,69395,1687,9758.2793,19148.498,0.0696775807064,-2.03031238829,0,0,
3376,3376,1.6880000,69396,1688,9759.00098,19147.5371,-0.964050134635,-2.0464078466,0,0,
3377,3377,1.6885000,69396,1688,9757.91895,19152.3457,-0.751838295029,1.89246602192,0,0,
